   2.9130747e-02
   9.6080150e-02
   1.4085077e-01
   7.9918463e-02
  -5.2323877e-02
  -1.1601945e-01
  -3.6749780e-02
   7.8221335e-02
   7.2295859e-02
  -3.8704120e-02
  -8.8215953e-02
  -7.4926906e-03
   7.5732221e-02
   3.9892198e-02
  -4.6008447e-02
  -3.9446208e-02
   5.1732557e-02
   8.7729631e-02
   1.5089885e-02
  -5.8266874e-02
  -3.3733531e-02
   3.5108151e-02
   3.7552005e-02
  -2.3051078e-02
  -4.5269689e-02
   5.2869496e-03
   4.5534852e-02
   1.2285147e-02
  -3.7886707e-02
  -2.5625136e-02
   2.0317514e-02
   1.5413395e-02
  -3.4763059e-02
  -4.3491976e-02
   6.9164157e-03
   2.9700580e-02
  -2.6235207e-02
  -9.8717907e-02
  -1.1770431e-01
  -9.0495221e-02
  -1.5580368e-02
   1.8650159e-01
   5.3602984e-01
   8.4398008e-01
   8.4462471e-01
   4.9668944e-01
   5.2564695e-02
  -2.0270160e-01
  -2.0782413e-01
  -9.9255666e-02
  -1.4899671e-02
   1.3847882e-02
   2.1655905e-02
   3.6051659e-02
   5.3415953e-02
   5.5550011e-02
   3.5568803e-02
   9.6124116e-03
   1.3864064e-03
   1.6556903e-02
   3.9469434e-02
   5.3174009e-02
   5.4687156e-02
   5.3042694e-02
   5.9128770e-02
   7.4569870e-02
   8.8997491e-02
   9.6381838e-02
   1.1098079e-01
   1.4894573e-01
   1.9606458e-01
   2.2153382e-01
   2.2704282e-01
   2.4671606e-01
   2.8740203e-01
   3.1018626e-01
   2.9342729e-01
   2.7259860e-01
   2.8412804e-01
   3.0591685e-01
   2.9393916e-01
   2.4888547e-01
   2.0321721e-01
   1.6531668e-01
   1.2183082e-01
   7.8580054e-02
   5.3768456e-02
   4.0770027e-02
   1.9043225e-02
  -5.9659706e-03
  -1.2559997e-02
  -4.7780496e-03
  -6.1101112e-03
  -1.6773167e-02
  -1.5495339e-02
  -1.4378013e-03
   3.0577937e-03
  -6.8605048e-03
  -9.8590904e-03
   4.1509524e-03
   1.7918407e-02
   1.6408757e-02
   8.6208171e-03
   1.0609905e-02
   2.3068387e-02
   3.3281925e-02
   3.0579731e-02
   1.7330126e-02
   7.6301546e-03
   1.0519187e-02
   1.5443079e-02
   8.0223018e-03
  -2.0085009e-03
   6.4660442e-03
   2.3511256e-02
   1.3530819e-02
  -2.5416696e-02
  -4.7445271e-02
  -2.6381818e-02
   2.0296864e-03
  -2.8009510e-03
  -2.3799202e-02
  -2.1249103e-02
   2.7181845e-04
   6.9005087e-03
  -3.7720615e-03
  -5.3716267e-03
   6.0912626e-03
   9.5616681e-03
   1.4539210e-03
  -1.0843954e-03
   2.7259160e-03
  -4.7618075e-03
  -2.3441677e-02
  -3.1348097e-02
  -2.0524945e-02
  -8.2635229e-03
  -7.9478702e-03
  -1.2253277e-02
  -9.9692390e-03
  -1.9281462e-03
   2.8303075e-03
  -3.4318913e-03
  -1.8077823e-02
  -2.2240704e-02
   3.1772754e-03
   4.6734426e-02
   7.0240396e-02
   5.6319680e-02
   3.1252768e-02
   2.4700111e-02
   3.1017789e-02
   3.1219038e-02
   2.8046985e-02
   3.2131205e-02
   3.4025198e-02
   1.8997873e-02
  -5.9485872e-03
  -2.4926224e-02
  -3.6877864e-02
  -4.4101233e-02
  -3.7344420e-02
  -1.7111043e-02
  -8.1123838e-03
  -2.4459656e-02
  -4.1563716e-02
  -3.3571845e-02
  -1.9759533e-02
  -3.9697175e-02
  -9.2361630e-02
  -1.2293017e-01
  -5.6375857e-02
   1.6259931e-01
   5.1209130e-01
   8.3494051e-01
   8.9549825e-01
   5.8862690e-01
   9.5435307e-02
  -2.4587987e-01
  -2.5708356e-01
  -6.8220232e-02
   6.5750036e-02
   4.2952882e-02
  -3.2061167e-02
  -3.2528642e-02
   3.0193920e-02
   5.4757401e-02
   6.7712140e-03
  -3.8640934e-02
  -1.5434843e-02
   3.6184838e-02
   3.8324106e-02
  -1.9093470e-04
  -3.5511375e-04
   5.7595444e-02
   1.0280608e-01
   8.9501017e-02
   6.6465354e-02
   9.0660554e-02
   1.3892988e-01
   1.6242900e-01
   1.7471671e-01
   2.1661437e-01
   2.7021405e-01
   2.8274885e-01
   2.5840869e-01
   2.5470324e-01
   2.9015587e-01
   3.2002280e-01
   3.1086896e-01
   2.8238597e-01
   2.6018562e-01
   2.3547503e-01
   1.9409380e-01
   1.4939173e-01
   1.2060556e-01
   1.0087968e-01
   6.9383225e-02
   2.4153140e-02
  -1.3278525e-02
  -2.2889819e-02
  -7.9904063e-03
   8.6563119e-03
   9.5582951e-03
  -5.1417473e-04
  -7.8607890e-03
  -1.2277018e-02
  -1.9991608e-02
  -2.1568558e-02
  -3.8118669e-03
   1.8015146e-02
   1.3685171e-02
  -1.1676891e-02
  -1.9076530e-02
   2.0000470e-03
   1.5531626e-02
   1.6302251e-03
  -8.9260804e-03
   8.0066984e-03
   2.3117402e-02
   4.3336659e-03
  -2.4278946e-02
  -2.1991072e-02
   2.5659815e-04
   2.4407342e-03
  -1.5100443e-02
  -1.7884955e-02
  -6.2088725e-04
   7.3504665e-03
  -3.8659930e-03
  -1.2694087e-02
  -1.0652263e-02
  -1.6164499e-02
  -3.5059922e-02
  -4.3068922e-02
  -2.2007381e-02
   1.0864542e-02
   2.3234893e-02
   4.1786089e-03
  -2.7124608e-02
  -4.1866091e-02
  -2.9712477e-02
  -9.3311371e-03
  -5.1401184e-03
  -1.4437443e-02
  -1.3649702e-02
   1.9929621e-03
   1.0539041e-02
   2.5021308e-03
  -2.0806409e-03
   9.1436521e-03
   1.6924985e-02
   4.8212042e-03
  -1.0576430e-02
  -8.3321827e-03
   3.2410265e-03
   6.9315233e-03
   6.3164835e-03
   9.3673396e-03
   6.8732234e-03
  -5.4763028e-03
  -8.0292144e-03
   1.0783095e-02
   2.7814451e-02
   2.2201244e-02
   1.4710641e-02
   3.4000160e-02
   6.4988246e-02
   7.1161594e-02
   5.3184694e-02
   4.3899208e-02
   5.3573427e-02
   5.9903252e-02
   5.0433192e-02
   3.9644938e-02
   4.0183379e-02
   4.4332141e-02
   3.9241150e-02
   2.2470729e-02
   1.0778825e-03
  -1.2662446e-02
  -9.3059076e-03
   4.1542523e-03
   8.4098322e-03
  -2.1691657e-03
  -1.3625195e-02
  -2.2040237e-02
  -4.5835399e-02
  -8.8384850e-02
  -1.0402361e-01
  -2.1671958e-02
   1.9867970e-01
   5.2275869e-01
   8.2453435e-01
   9.2319163e-01
   7.1032776e-01
   2.8436752e-01
  -8.7753358e-02
  -2.0169194e-01
  -9.5727078e-02
   3.1889855e-02
   5.3027367e-02
   6.1459361e-03
  -1.1942892e-02
   2.3644809e-02
   6.3293175e-02
   6.3355531e-02
   3.4092255e-02
   1.7149194e-02
   3.3863945e-02
   6.2623545e-02
   7.0118373e-02
   5.6857619e-02
   5.2364901e-02
   6.7496580e-02
   8.2070313e-02
   8.7321595e-02
   1.0465691e-01
   1.4354618e-01
   1.7629432e-01
   1.8223859e-01
   1.8580837e-01
   2.1776548e-01
   2.6424794e-01
   2.8979680e-01
   2.9063453e-01
   2.8905409e-01
   2.9059843e-01
   2.8298320e-01
   2.6734621e-01
   2.5659198e-01
   2.4780598e-01
   2.2474456e-01
   1.8503638e-01
   1.4333059e-01
   1.1130898e-01
   9.0139867e-02
   7.4853123e-02
   5.4501843e-02
   2.1501788e-02
  -9.1370464e-03
  -1.0465110e-02
   1.4163071e-02
   2.5764107e-02
   4.5176347e-03
  -1.8631307e-02
  -9.2268905e-03
   1.9445225e-02
   3.1889095e-02
   2.3332302e-02
   1.4508509e-02
   1.2442616e-02
   9.5517218e-03
   7.9978237e-03
   1.4378221e-02
   2.1175155e-02
   2.0039747e-02
   2.1478068e-02
   3.5912037e-02
   4.8177254e-02
   3.7535790e-02
   1.2300241e-02
  -1.0298709e-03
   5.3701309e-03
   1.6993958e-02
   2.1829594e-02
   1.9160671e-02
   1.1794564e-02
   5.6340872e-03
   7.9491182e-03
   1.4865923e-02
   1.3973480e-02
   7.1540764e-03
   1.0022051e-02
   2.0084434e-02
   1.3940912e-02
  -9.7054596e-03
  -1.7155570e-02
   8.0825494e-03
   3.2463482e-02
   2.0511684e-02
  -1.2543688e-02
  -2.8122717e-02
  -1.9605281e-02
  -6.7055770e-03
   3.4811973e-03
   1.3598310e-02
   1.1376243e-02
  -1.4602114e-02
  -4.4351499e-02
  -4.5382100e-02
  -1.6863243e-02
   1.2580449e-02
   2.5153537e-02
   2.7192069e-02
   2.8270194e-02
   3.0077381e-02
   3.3038769e-02
   3.7178091e-02
   4.0379642e-02
   4.5308972e-02
   5.7877698e-02
   7.1953109e-02
   7.2327375e-02
   6.0146657e-02
   5.3022290e-02
   5.1342798e-02
   3.3094819e-02
  -4.4098024e-03
  -2.9881807e-02
  -2.4770967e-02
  -1.2402559e-02
  -1.6149591e-02
  -2.0654865e-02
  -5.1565957e-03
   1.2854897e-02
   1.4987181e-03
  -3.8855352e-02
  -8.0123975e-02
  -8.9923514e-02
  -2.0091960e-02
   1.8654383e-01
   5.1293593e-01
   8.0162464e-01
   8.4343448e-01
   5.7104887e-01
   1.4559434e-01
  -1.7168264e-01
  -2.3588059e-01
  -1.1400615e-01
   1.5668071e-02
   4.4539442e-02
   9.8090659e-03
   2.3432984e-03
   3.8309360e-02
   5.9345657e-02
   3.7472459e-02
   1.5324211e-02
   2.9747114e-02
   5.5236535e-02
   5.6067613e-02
   4.6845266e-02
   5.9086531e-02
   8.3778184e-02
   9.2951136e-02
   9.2447450e-02
   1.0765533e-01
   1.3485146e-01
   1.5063170e-01
   1.5854519e-01
   1.8491369e-01
   2.3205887e-01
   2.7110199e-01
   2.8224186e-01
   2.7573640e-01
   2.7239633e-01
   2.8286774e-01
   3.0363035e-01
   3.1817298e-01
   3.0774973e-01
   2.7265643e-01
   2.3366219e-01
   2.0384422e-01
   1.7438820e-01
   1.3736956e-01
   1.0192469e-01
   7.5326860e-02
   5.0461073e-02
   2.6811811e-02
   2.0179159e-02
   3.4417588e-02
   4.7037758e-02
   4.1035420e-02
   2.7692026e-02
   2.0281558e-02
   1.1391133e-02
  -3.6117859e-03
  -8.4584684e-03
   4.6533516e-03
   1.4325967e-02
   5.1375302e-03
  -1.9600737e-03
   1.6245470e-02
   4.3704990e-02
   4.9445774e-02
   3.4996567e-02
   2.6158169e-02
   3.1659387e-02
   3.8964967e-02
   3.9772130e-02
   3.4380077e-02
   2.1694915e-02
   6.9152490e-03
   6.7793865e-03
   2.6560299e-02
   4.5107745e-02
   4.2128169e-02
   2.6161195e-02
   1.7337382e-02
   1.8364211e-02
   2.1096693e-02
   2.5217613e-02
   3.1317421e-02
   3.1066208e-02
   2.1576351e-02
   1.3781088e-02
   1.2579038e-02
   8.2405739e-03
   7.4377395e-04
   7.7340317e-03
   3.1948591e-02
   4.8209790e-02
   4.3273694e-02
   4.0877701e-02
   6.2705630e-02
   9.0973203e-02
   9.7599296e-02
   8.6768476e-02
   7.8699760e-02
   7.2498625e-02
   5.7246028e-02
   4.2870272e-02
   4.7082576e-02
   6.2086505e-02
   6.3131207e-02
   4.3630466e-02
   1.9408893e-02
   5.2131783e-03
   4.6350473e-03
   1.3823302e-02
   2.0519564e-02
   1.1519356e-02
  -7.3153438e-03
  -1.6119763e-02
  -1.7445737e-02
  -4.0150689e-02
  -8.0782748e-02
  -6.1442126e-02
   1.1346920e-01
   4.4258860e-01
   7.7542151e-01
   8.9176588e-01
   6.7315661e-01
   2.3401131e-01
  -1.3662063e-01
  -2.2276111e-01
  -8.1265825e-02
   4.9762816e-02
   3.7586962e-02
  -2.4465566e-02
   1.4329308e-04
   8.8038743e-02
   1.1525596e-01
   5.4766960e-02
   5.3005919e-03
   3.3409253e-02
   8.5296957e-02
   8.3364547e-02
   3.9237702e-02
   2.3105431e-02
   5.8477693e-02
   9.7913773e-02
   9.7132411e-02
   7.4735022e-02
   8.1936277e-02
   1.3120714e-01
   1.8207030e-01
   2.0116646e-01
   2.0791959e-01
   2.3721128e-01
   2.7897530e-01
   2.9370711e-01
   2.7840639e-01
   2.7112552e-01
   2.8712267e-01
   2.9725965e-01
   2.8166147e-01
   2.5890049e-01
   2.4279063e-01
   2.1491447e-01
   1.6613723e-01
   1.2412221e-01
   1.0853218e-01
   9.5971478e-02
   6.3265124e-02
   3.0976902e-02
   2.5881272e-02
   3.0807128e-02
   1.4580094e-02
  -1.1304434e-02
  -1.0461761e-02
   1.7956858e-02
   3.8256988e-02
   3.1570294e-02
   1.5291451e-02
   1.1123410e-02
   2.1133060e-02
   3.4740095e-02
   3.9545393e-02
   2.8415939e-02
   1.0269283e-02
   6.1569879e-03
   2.2665463e-02
   4.0998006e-02
   4.3679050e-02
   3.6539051e-02
   3.2092091e-02
   2.9078372e-02
   2.2768210e-02
   1.8181779e-02
   1.8940889e-02
   1.9321799e-02
   1.8326224e-02
   2.2993122e-02
   2.9182356e-02
   2.2538567e-02
   7.7044661e-03
   8.6236367e-03
   2.7961039e-02
   3.7508803e-02
   2.4670521e-02
   1.5046529e-02
   2.7703588e-02
   4.1214550e-02
   3.0913309e-02
   1.0011128e-02
   3.4055608e-03
   6.1894931e-03
   3.5327297e-04
  -7.8569713e-03
   3.1160879e-04
   2.1476454e-02
   3.5720517e-02
   3.6228280e-02
   3.1248784e-02
   2.7796657e-02
   3.1260166e-02
   4.7111268e-02
   6.6904268e-02
   6.9621336e-02
   5.2547131e-02
   4.1138317e-02
   5.1797485e-02
   6.7017732e-02
   6.6487076e-02
   6.0315363e-02
   6.8503978e-02
   8.5735082e-02
   8.9629686e-02
   7.0975249e-02
   3.8545789e-02
   7.2159852e-03
  -6.7356470e-03
   4.0838255e-03
   2.2156239e-02
   1.9818690e-02
  -1.1906131e-03
  -1.0217782e-02
   2.7739353e-03
   8.0715730e-03
  -1.9460950e-02
  -6.3822511e-02
  -8.2199266e-02
  -2.0288716e-02
   1.8374681e-01
   5.3608249e-01
   8.8887175e-01
   9.8199846e-01
   6.8101404e-01
   1.6368417e-01
  -2.1076961e-01
  -2.4156427e-01
  -5.2689666e-02
   8.9235176e-02
   6.7535463e-02
  -1.3963372e-02
  -1.5906926e-02
   5.6479197e-02
   9.1129303e-02
   4.2465982e-02
  -7.9300587e-03
   2.0101013e-02
   8.4798695e-02
   9.0974126e-02
   3.8087070e-02
   1.6490112e-02
   6.3356507e-02
   1.1087105e-01
   1.0141480e-01
   7.4402879e-02
   9.1894384e-02
   1.4109547e-01
   1.7056563e-01
   1.7940603e-01
   2.0588954e-01
   2.5165338e-01
   2.7843236e-01
   2.7270463e-01
   2.6358879e-01
   2.7507827e-01
   2.9772408e-01
   3.1042083e-01
   3.0270175e-01
   2.7466569e-01
   2.3580481e-01
   2.0252566e-01
   1.8133475e-01
   1.5955410e-01
   1.2473050e-01
   8.3721106e-02
   5.1059119e-02
   3.0428243e-02
   1.8916609e-02
   1.6278311e-02
   1.9240026e-02
   2.0051745e-02
   1.8568686e-02
   2.0664154e-02
   2.1125521e-02
   9.7368399e-03
  -2.1138319e-03
   1.0633836e-02
   4.3924706e-02
   6.0807341e-02
   4.3664669e-02
   1.9615037e-02
   1.7660480e-02
   3.0599729e-02
   3.8296655e-02
   3.9633825e-02
   3.9952184e-02
   3.3136156e-02
   1.8172850e-02
   1.0199180e-02
   1.5581405e-02
   1.9238361e-02
   1.3635475e-02
   1.3676618e-02
   2.4694858e-02
   2.5425148e-02
   5.4414856e-03
  -9.5566623e-03
   3.4751409e-03
   2.6456730e-02
   2.8683982e-02
   1.2075689e-02
   2.2652235e-07
  -6.3907296e-04
   7.7136709e-04
   1.5213548e-03
   4.2183128e-03
   5.2792359e-03
   4.3682846e-03
   1.1463276e-02
   2.7751487e-02
   3.5753677e-02
   2.5064184e-02
   1.0989280e-02
   1.1465951e-02
   2.2532750e-02
   3.1488288e-02
   3.5995556e-02
   3.5714765e-02
   2.4550609e-02
   6.2137540e-03
  -1.5738783e-03
   7.5199700e-03
   1.7526928e-02
   1.6321120e-02
   1.2048139e-02
   1.3606705e-02
   1.8437688e-02
   2.8985253e-02
   5.3798182e-02
   8.1534117e-02
   8.4916712e-02
   6.4359413e-02
   5.4640077e-02
   7.0794936e-02
   8.2364597e-02
   6.4550598e-02
   4.0113700e-02
   4.0050502e-02
   5.2138552e-02
   4.3572168e-02
   1.3938375e-02
  -8.3488881e-03
  -8.9132989e-03
   2.4308214e-03
   1.4461282e-02
   2.3157779e-02
   2.4693883e-02
   1.7178232e-02
   1.6528742e-03
  -2.6245365e-02
  -6.3957108e-02
  -6.5264207e-02
   5.6309530e-02
   3.4473563e-01
   7.1142577e-01
   9.4938988e-01
   8.7289755e-01
   4.8359523e-01
   1.2765353e-02
  -2.4228668e-01
  -1.7769379e-01
   2.6679772e-02
   1.1605934e-01
   4.0595770e-02
  -3.5832029e-02
   1.0705789e-02
   1.0729569e-01
   1.2019771e-01
   5.1179018e-02
   1.0543429e-02
   4.5309033e-02
   9.1626741e-02
   8.9755407e-02
   6.2732267e-02
   6.0480269e-02
   8.4630875e-02
   1.0259088e-01
   1.0457130e-01
   1.1316825e-01
   1.4500419e-01
   1.8669911e-01
   2.1476023e-01
   2.2797935e-01
   2.4637747e-01
   2.7726836e-01
   3.0061426e-01
   3.0089469e-01
   2.9457539e-01
   3.0206069e-01
   3.0971420e-01
   2.9360575e-01
   2.6731857e-01
   2.6270338e-01
   2.6937999e-01
   2.4407263e-01
   1.8374081e-01
   1.3553366e-01
   1.2063919e-01
   1.0300884e-01
   5.7448981e-02
   1.6160833e-02
   1.3343095e-02
   2.8819735e-02
   2.7253489e-02
   1.6554153e-02
   2.3916110e-02
   4.2906327e-02
   4.9324514e-02
   4.8851262e-02
   6.4422000e-02
   8.8403296e-02
   8.8858654e-02
   5.9891122e-02
   3.1269345e-02
   2.6104955e-02
   3.5237322e-02
   3.8155168e-02
   3.1132482e-02
   2.8068915e-02
   4.0419417e-02
   5.9461173e-02
   6.2023050e-02
   3.9912189e-02
   1.5687372e-02
   1.4200224e-02
   2.7831682e-02
   3.2858708e-02
   3.0221738e-02
   3.7333109e-02
   4.6171560e-02
   3.1643625e-02
   3.2059689e-03
   1.4149770e-03
   3.2004284e-02
   5.0455736e-02
   3.1419889e-02
   8.2572306e-03
   1.6860732e-02
   4.1238020e-02
   4.7705946e-02
   3.8536697e-02
   3.5306915e-02
   3.6146672e-02
   2.7169710e-02
   1.7545986e-02
   2.8276752e-02
   5.7126605e-02
   8.1706113e-02
   8.8408697e-02
   7.8716388e-02
   5.8994337e-02
   4.1539439e-02
   4.2478486e-02
   6.2159373e-02
   7.9962837e-02
   8.0863540e-02
   7.1883542e-02
   6.2108691e-02
   4.6099569e-02
   2.0143427e-02
  -3.6808475e-03
  -1.2827279e-02
  -7.8122971e-03
   7.4418439e-03
   2.9783050e-02
   4.5825424e-02
   3.9967564e-02
   1.8790579e-02
   1.2042984e-03
  -1.7830103e-02
  -5.3549178e-02
  -6.5766026e-02
   4.6850087e-02
   3.3854007e-01
   7.0755325e-01
   9.2889705e-01
   8.2255936e-01
   4.1581745e-01
  -4.5128031e-02
  -2.7432929e-01
  -1.8873486e-01
   2.4515189e-02
   1.1794687e-01
   4.7996721e-02
  -2.4771023e-02
   1.7337543e-02
   1.0223905e-01
   1.0548248e-01
   3.9134928e-02
   1.4797233e-02
   6.7279696e-02
   1.1582659e-01
   9.7816356e-02
   5.4928628e-02
   5.7477779e-02
   1.0192926e-01
   1.2882630e-01
   1.1555922e-01
   1.0511620e-01
   1.4020771e-01
   2.0340085e-01
   2.4579066e-01
   2.5780623e-01
   2.7537611e-01
   3.1292771e-01
   3.3345390e-01
   3.1168273e-01
   2.8759132e-01
   3.0973173e-01
   3.5239923e-01
   3.4940363e-01
   2.9752395e-01
   2.5855298e-01
   2.5552719e-01
   2.3869371e-01
   1.7605502e-01
   1.1018924e-01
   8.7492712e-02
   8.7185639e-02
   6.7481027e-02
   3.8383449e-02
   3.6202858e-02
   5.5213935e-02
   5.6866989e-02
   3.1815880e-02
   8.1736210e-03
   5.2370661e-03
   1.5035248e-02
   2.6009411e-02
   3.5365302e-02
   3.9016465e-02
   3.2386857e-02
   2.2125735e-02
   2.1953818e-02
   3.6787443e-02
   5.8207562e-02
   7.1649875e-02
   6.6138526e-02
   4.5995723e-02
   3.2153387e-02
   3.8763930e-02
   5.2060491e-02
   4.9821495e-02
   3.5068574e-02
   2.6406212e-02
   2.3067870e-02
   1.2178628e-02
   4.9492140e-03
   2.4675563e-02
   5.7661396e-02
   6.1613830e-02
   3.2054375e-02
   1.3953079e-02
   3.1148541e-02
   5.0451520e-02
   3.9663326e-02
   1.7603850e-02
   1.4949186e-02
   2.2731706e-02
   1.6997223e-02
   6.6042283e-03
   1.8169964e-02
   5.0873745e-02
   7.8997597e-02
   8.7979572e-02
   8.2350345e-02
   6.8836089e-02
   5.3983741e-02
   4.9854435e-02
   6.3317247e-02
   8.4840117e-02
   9.7880284e-02
   9.1652320e-02
   6.2629567e-02
   1.9661910e-02
  -1.0664135e-02
  -5.7088873e-03
   2.1748651e-02
   3.6275243e-02
   2.6940404e-02
   1.5533249e-02
   1.5202034e-02
   1.3146407e-02
   1.2492973e-03
  -1.1716622e-02
  -2.9462272e-02
  -6.7349879e-02
  -9.4601166e-02
  -1.3315376e-02
   2.5336403e-01
   6.4189638e-01
   9.3850104e-01
   9.2012579e-01
   5.4767494e-01
   4.2718599e-02
  -2.6513967e-01
  -2.2646450e-01
  -5.9330817e-03
   1.1466623e-01
   4.9937672e-02
  -4.1095241e-02
  -9.7628470e-03
   8.9519123e-02
   1.1314330e-01
   4.3000871e-02
  -1.1212010e-02
   1.4080969e-02
   6.1828724e-02
   6.1610505e-02
   3.1193412e-02
   3.3282702e-02
   7.7059807e-02
   1.1019110e-01
   9.7891092e-02
   7.1841115e-02
   8.6853693e-02
   1.4889525e-01
   2.1109513e-01
   2.3798994e-01
   2.4340015e-01
   2.5227770e-01
   2.5811145e-01
   2.4839666e-01
   2.4485170e-01
   2.7373943e-01
   3.1178832e-01
   3.1126135e-01
   2.7255296e-01
   2.4048552e-01
   2.2852053e-01
   2.0222647e-01
   1.4753252e-01
   9.8853816e-02
   7.9128195e-02
   6.4062493e-02
   3.3232959e-02
   9.4998323e-03
   1.4630727e-02
   2.6622017e-02
   1.7940061e-02
   2.5831361e-03
   6.9940058e-03
   2.1251341e-02
   1.7953103e-02
   9.6696525e-05
  -6.8446716e-03
   1.9199849e-03
   8.2131295e-03
   4.9145011e-03
   4.4559270e-03
   1.4801048e-02
   2.7090457e-02
   2.8972736e-02
   2.0080397e-02
   1.3474716e-02
   2.1962477e-02
   3.8459571e-02
   3.7644749e-02
   1.0655372e-02
  -1.3144584e-02
  -2.7502205e-03
   2.6223070e-02
   3.2130225e-02
   1.0224424e-02
  -3.8336749e-03
   6.0412477e-03
   1.5538820e-02
   7.8169268e-03
  -9.5224545e-05
   5.4113846e-03
   9.3666494e-03
   3.0169795e-04
  -6.4016748e-03
   1.2860855e-03
   8.1931605e-03
  -2.8590054e-04
  -1.2666810e-02
  -1.3667207e-02
  -8.4709473e-03
  -6.8973934e-03
  -5.7041980e-03
  -2.2907384e-03
  -3.8854684e-03
  -9.6104072e-03
  -6.4960868e-03
   4.7216859e-03
   4.9859570e-03
  -9.9163524e-03
  -1.8365376e-02
  -8.3178799e-03
   3.8703639e-03
   5.1803522e-03
   8.5832025e-03
   2.5863914e-02
   4.3323257e-02
   4.4583496e-02
   3.7044915e-02
   3.7403478e-02
   4.7740664e-02
   5.9850214e-02
   6.7401236e-02
   6.4384195e-02
   4.8950948e-02
   3.4781022e-02
   3.7684895e-02
   4.6691451e-02
   3.3700024e-02
  -2.5994991e-03
  -3.0094477e-02
  -2.8040759e-02
  -1.0740347e-02
   1.2052820e-03
   4.2709751e-03
  -1.7331597e-03
  -2.0376583e-02
  -4.1962788e-02
  -5.0895556e-02
  -5.6779952e-02
  -7.7175925e-02
  -7.0784935e-02
   6.5616741e-02
   3.8282526e-01
   7.6756896e-01
   9.8348857e-01
   8.5362153e-01
   4.2449669e-01
  -4.2026291e-02
  -2.6810497e-01
  -1.9286518e-01
  -7.5605617e-03
   6.4197161e-02
  -1.6705871e-04
  -5.1430144e-02
   2.8782144e-05
   7.4615924e-02
   6.4622861e-02
  -6.8437831e-03
  -3.4713188e-02
   1.3137773e-02
   6.7576895e-02
   6.8670428e-02
   3.6407007e-02
   2.1436526e-02
   3.4212370e-02
   4.8671060e-02
   5.2736291e-02
   6.6514532e-02
   1.0796606e-01
   1.5854035e-01
   1.8232636e-01
   1.7813260e-01
   1.8634032e-01
   2.2944050e-01
   2.7365657e-01
   2.7898278e-01
   2.6239221e-01
   2.6806722e-01
   2.9161126e-01
   2.8741126e-01
   2.4723031e-01
   2.1426437e-01
   2.0983369e-01
   2.0100310e-01
   1.6073344e-01
   1.1127954e-01
   8.1761070e-02
   6.4631664e-02
   4.3305111e-02
   2.6842884e-02
   2.6282962e-02
   2.6631300e-02
   1.3563775e-02
   3.3383655e-03
   1.5468079e-02
   3.4840497e-02
   3.0784370e-02
   1.9065115e-03
  -2.3018326e-02
  -2.2559414e-02
  -3.8026313e-03
   9.8747369e-03
   3.2190073e-03
  -1.4380850e-02
  -1.6885036e-02
   5.2469044e-03
   2.7875810e-02
   2.6304376e-02
   1.3775441e-02
   1.9007933e-02
   3.5362645e-02
   2.9997021e-02
   8.7753398e-04
  -1.7482439e-02
  -1.0457364e-02
  -3.2976433e-03
  -1.3221144e-02
  -2.1911243e-02
  -1.2575748e-02
   2.0561095e-03
   8.1548834e-03
   1.4559535e-02
   2.7537319e-02
   3.0891333e-02
   1.2815735e-02
  -1.1326905e-02
  -2.1949252e-02
  -1.9903422e-02
  -1.3666596e-02
  -4.1661657e-03
   3.9482550e-03
  -1.5269179e-03
  -1.9091010e-02
  -2.9076653e-02
  -2.1777665e-02
  -9.7214632e-03
  -3.7847972e-03
  -1.4628089e-04
   1.2884466e-03
  -8.7613204e-03
  -2.6205555e-02
  -3.0342652e-02
  -1.4423394e-02
   3.2794083e-03
   8.4759199e-03
   8.7683610e-03
   1.4849011e-02
   2.6552145e-02
   4.3730246e-02
   6.7066272e-02
   8.3033249e-02
   7.3962543e-02
   4.8155910e-02
   3.3402351e-02
   3.6337930e-02
   3.6290765e-02
   2.3003764e-02
   9.1244503e-03
  -4.2073657e-05
  -1.5885378e-02
  -3.7658164e-02
  -4.7155697e-02
  -4.1368693e-02
  -3.8244351e-02
  -4.1160748e-02
  -3.1904913e-02
  -1.0395908e-02
  -7.4970631e-03
  -4.3440052e-02
  -9.9354493e-02
  -1.3272243e-01
  -8.6947875e-02
   1.0436254e-01
   4.4839366e-01
   7.9748228e-01
   8.9832370e-01
   6.2303649e-01
   1.3981839e-01
  -2.1444645e-01
  -2.4997497e-01
  -7.8618809e-02
   5.3027831e-02
   3.7527328e-02
  -2.6094950e-02
  -1.2735711e-02
   5.6612592e-02
   6.8559744e-02
  -1.3509854e-03
  -4.9773192e-02
  -2.7484455e-03
   7.4142984e-02
   8.1415054e-02
   3.6294678e-02
   3.0827455e-02
   7.6806184e-02
   9.6098786e-02
   6.2332755e-02
   4.7752645e-02
   1.0034015e-01
   1.6545973e-01
   1.7982671e-01
   1.7064393e-01
   1.9797834e-01
   2.5082092e-01
   2.7089895e-01
   2.5070510e-01
   2.3988799e-01
   2.6257855e-01
   2.8633665e-01
   2.7949888e-01
   2.5466977e-01
   2.3924777e-01
   2.3180323e-01
   2.0880019e-01
   1.6315737e-01
   1.1722028e-01
   9.3520276e-02
   8.3830429e-02
   6.1725879e-02
   2.3998606e-02
  -2.3697155e-03
  -3.3147209e-03
  -1.4500019e-03
  -1.6162043e-02
  -2.7007778e-02
  -9.7779507e-03
   1.4097221e-02
   7.3592227e-03
  -1.9304427e-02
  -2.2366401e-02
   2.8213185e-03
   1.7331458e-02
   6.2045624e-03
  -2.3965289e-03
   6.4268428e-03
   1.1512703e-02
   4.8084099e-03
   1.2600579e-02
   4.3792967e-02
   6.1791990e-02
   3.7939201e-02
  -2.5287701e-03
  -1.7991856e-02
  -5.3011086e-03
   1.1079294e-02
   2.0347258e-02
   2.7646665e-02
   3.2831104e-02
   3.1870529e-02
   2.8420294e-02
   2.7283571e-02
   2.6768184e-02
   2.7333055e-02
   3.4129393e-02
   4.3613281e-02
   4.3358996e-02
   3.1527590e-02
   2.0892935e-02
   1.9710318e-02
   2.4581233e-02
   3.2530506e-02
   4.1970400e-02
   4.4376303e-02
   3.6263312e-02
   3.4089803e-02
   5.1315712e-02
   6.7219842e-02
   5.0964881e-02
   1.3079545e-02
  -3.5386192e-03
   1.5245248e-02
   4.0232832e-02
   4.8966149e-02
   5.0926425e-02
   5.4518378e-02
   4.8415960e-02
   3.0019956e-02
   1.7803121e-02
   1.9769657e-02
   2.0235411e-02
   1.1912071e-02
   1.1039164e-02
   2.6092919e-02
   4.0046359e-02
   3.8738972e-02
   3.0813347e-02
   2.6090837e-02
   1.9877695e-02
   1.1806623e-02
   1.4938786e-02
   3.2138775e-02
   4.6044228e-02
   4.5340795e-02
   4.0585577e-02
   4.4281692e-02
   5.5239537e-02
   6.9211134e-02
   8.4147048e-02
   9.0853752e-02
   8.1505811e-02
   7.0143069e-02
   7.9171133e-02
   1.0256613e-01
   1.1013066e-01
   9.2002038e-02
   6.9375369e-02
   5.6278078e-02
   4.2466029e-02
   2.2723732e-02
   1.2023647e-02
   1.9171465e-02
   3.1488587e-02
   3.6597523e-02
   3.6211005e-02
   3.1324779e-02
   1.8381840e-02
   5.1874577e-03
   2.7693759e-03
  -3.6764686e-03
  -4.0030879e-02
  -8.0061155e-02
  -2.5460806e-02
   2.1296249e-01
   5.9882399e-01
   9.3701452e-01
   9.8457160e-01
   6.5348303e-01
   1.3605985e-01
  -2.1854146e-01
  -2.1826084e-01
  -6.2019046e-03
   1.2567154e-01
   7.2219757e-02
  -1.7361424e-02
   6.7660582e-03
   9.6033451e-02
   1.1303966e-01
   4.3514794e-02
  -2.8827184e-03
   3.3555598e-02
   8.8798029e-02
   8.5929912e-02
   4.4029539e-02
   3.6717187e-02
   8.2795170e-02
   1.2713797e-01
   1.2452634e-01
   1.0076233e-01
   1.1009414e-01
   1.5785555e-01
   2.0194549e-01
   2.2322622e-01
   2.4789888e-01
   2.8749510e-01
   3.0651906e-01
   2.8357716e-01
   2.6096222e-01
   2.8340879e-01
   3.2100997e-01
   3.1372059e-01
   2.6972887e-01
   2.4984692e-01
   2.6279913e-01
   2.5163647e-01
   1.9358063e-01
   1.3984313e-01
   1.2987264e-01
   1.3014672e-01
   9.6485928e-02
   4.6316411e-02
   2.4415198e-02
   3.2758520e-02
   3.8688095e-02
   2.9928280e-02
   2.1982742e-02
   2.3906713e-02
   2.9062260e-02
   3.3497125e-02
   3.9771012e-02
   4.5884980e-02
   4.6032606e-02
   3.9713671e-02
   3.2121285e-02
   2.9674479e-02
   3.6835994e-02
   4.9832294e-02
   5.5643379e-02
   4.7252939e-02
   3.4538263e-02
   2.8401190e-02
   2.4667859e-02
   1.9371533e-02
   2.4342713e-02
   4.4351200e-02
   5.5672433e-02
   3.8300473e-02
   1.4580424e-02
   1.9306240e-02
   4.3652840e-02
   5.0127813e-02
   3.3995741e-02
   2.3527877e-02
   2.3855927e-02
   1.1939974e-02
  -9.3718306e-03
  -5.6065278e-03
   2.8141569e-02
   5.0041183e-02
   3.5128323e-02
   1.1595973e-02
   1.0411654e-02
   1.9517635e-02
   1.6142865e-02
   9.5089908e-03
   1.8630650e-02
   3.3158101e-02
   3.0038614e-02
   1.4518288e-02
   1.4977807e-02
   4.2080801e-02
   7.3929261e-02
   8.2498574e-02
   6.4784466e-02
   4.6109685e-02
   5.2221154e-02
   7.7734962e-02
   9.1924739e-02
   8.0546014e-02
   6.3248858e-02
   5.6286215e-02
   4.3643211e-02
   1.1682502e-02
  -1.3115073e-02
  -9.8927887e-05
   3.0661144e-02
   3.4999064e-02
   1.4020680e-02
   7.2894168e-03
   2.2623522e-02
   2.5202721e-02
  -2.1522700e-03
  -3.9161270e-02
  -6.8540249e-02
  -7.4311695e-02
   7.8779458e-03
   2.5512601e-01
   6.1763698e-01
   8.7219771e-01
   8.0029964e-01
   4.1962333e-01
  -7.9066143e-03
  -2.1525528e-01
  -1.5978310e-01
  -1.2994680e-02
   4.9057890e-02
   1.3441911e-02
  -1.3127619e-02
   2.6871180e-02
   7.4311089e-02
   6.0760475e-02
   1.7079125e-02
   2.1401479e-02
   7.6850687e-02
   1.1097355e-01
   8.7462529e-02
   5.0661809e-02
   4.8860991e-02
   7.1866273e-02
   8.7009431e-02
   9.1522622e-02
   1.0249035e-01
   1.2685961e-01
   1.6332160e-01
   2.0895027e-01
   2.4874778e-01
   2.6285932e-01
   2.5637601e-01
   2.5796648e-01
   2.7922059e-01
   3.0013782e-01
   3.0346045e-01
   2.9660623e-01
   2.8916065e-01
   2.7475870e-01
   2.4800232e-01
   2.1765269e-01
   1.9140036e-01
   1.6497376e-01
   1.3384968e-01
   1.0016203e-01
   6.5562189e-02
   3.3516982e-02
   1.6512269e-02
   2.1723756e-02
   3.3916945e-02
   3.3906250e-02
   2.6940408e-02
   2.8565112e-02
   3.2707114e-02
   2.4337543e-02
   1.3712060e-02
   2.1225096e-02
   3.5070109e-02
   2.5485817e-02
  -5.0542416e-04
  -2.7945298e-03
   2.8396059e-02
   5.6086470e-02
   5.4072147e-02
   4.0143101e-02
   3.6981664e-02
   3.7461759e-02
   2.8617330e-02
   1.9194974e-02
   2.1937827e-02
   3.1034232e-02
   3.4725180e-02
   3.2496673e-02
   2.7522454e-02
   1.8729946e-02
   9.1241095e-03
   6.3942993e-03
   9.9929509e-03
   1.2092676e-02
   1.1594203e-02
   1.1703851e-02
   8.4310095e-03
   3.8802032e-04
   1.5878686e-03
   2.0752827e-02
   3.7805374e-02
   2.9796981e-02
   1.0592142e-02
   1.0969624e-02
   2.7125086e-02
   2.7810700e-02
   9.2636596e-03
   9.3017985e-04
   1.3485302e-02
   2.2827285e-02
   1.4589762e-02
   6.1187407e-03
   1.1868576e-02
   2.1140762e-02
   2.4331585e-02
   3.1322772e-02
   4.9129530e-02
   6.6508436e-02
   7.3349993e-02
   7.3930394e-02
   7.2546390e-02
   6.7097364e-02
   6.2308770e-02
   6.7767424e-02
   7.8747898e-02
   7.9391107e-02
   6.6117546e-02
   4.7647493e-02
   2.5492714e-02
  -1.2610860e-03
  -1.7385175e-02
  -7.2901953e-03
   1.3723410e-02
   1.4793947e-02
  -5.5193255e-03
  -2.0316026e-02
  -1.8484446e-02
  -1.6209433e-02
  -2.6466153e-02
  -4.6755284e-02
  -6.5772672e-02
  -4.0858881e-02
   1.1341470e-01
   4.3687348e-01
   8.0007767e-01
   9.4287209e-01
   7.0980511e-01
   2.3566515e-01
  -1.5438641e-01
  -2.4166090e-01
  -9.2030837e-02
   5.9732647e-02
   6.9947707e-02
   1.3007975e-03
  -1.0446231e-02
   5.2464064e-02
   8.6868582e-02
   3.6661805e-02
  -2.1925935e-02
   1.9917175e-04
   7.1237162e-02
   9.5442020e-02
   6.0361662e-02
   4.0619009e-02
   6.9626566e-02
   9.6738838e-02
   8.4499577e-02
   6.9134993e-02
   9.2519415e-02
   1.3637471e-01
   1.6422464e-01
   1.8250428e-01
   2.1730617e-01
   2.6150874e-01
   2.8560203e-01
   2.8369027e-01
   2.7651789e-01
   2.7858820e-01
   2.8586507e-01
   2.8939903e-01
   2.8396187e-01
   2.6689093e-01
   2.3841738e-01
   2.0197400e-01
   1.6368461e-01
   1.3442551e-01
   1.2380339e-01
   1.2271156e-01
   1.0462161e-01
   5.9866918e-02
   1.4971471e-02
  -1.2703529e-03
   4.7622182e-03
   1.0792485e-02
   1.6075256e-02
   2.8704299e-02
   3.3943259e-02
   1.4615438e-02
  -8.8203062e-03
  -1.1687060e-03
   3.0246477e-02
   4.3675853e-02
   2.6370313e-02
   7.5680253e-03
   6.8755977e-03
   1.2378159e-02
   1.5661290e-02
   2.6648964e-02
   4.3132930e-02
   4.4036958e-02
   2.6800949e-02
   1.7963171e-02
   3.2158866e-02
   4.9696137e-02
   4.8362658e-02
   3.1851945e-02
   1.4932596e-02
   3.7580073e-03
   7.8524059e-04
   7.8623145e-03
   1.6455895e-02
   1.3826640e-02
   3.0119651e-03
  -1.9651193e-03
  -4.0730040e-04
  -2.9702405e-03
  -7.4074272e-03
  -8.5820840e-04
   1.4226692e-02
   2.1035802e-02
   1.5179644e-02
   7.4978005e-03
   2.3543873e-03
  -3.4777334e-03
  -4.7575059e-03
   4.2285246e-03
   1.1313342e-02
   2.9854687e-03
  -7.7691307e-03
   1.5752950e-04
   1.7369446e-02
   1.7278770e-02
   2.0516775e-03
  -1.7251658e-03
   9.3462949e-03
   1.1311787e-02
  -1.7007408e-03
  -6.9676061e-03
   4.9153797e-03
   1.4026412e-02
   8.3483563e-03
   5.4681605e-03
   2.3432785e-02
   5.4234114e-02
   7.7369865e-02
   8.1394609e-02
   6.7525291e-02
   4.9583228e-02
   4.9039872e-02
   7.0625531e-02
   8.8325406e-02
   7.7721858e-02
   5.2777816e-02
   4.2597446e-02
   4.2620071e-02
   2.4961206e-02
  -8.7126234e-03
  -2.4901546e-02
  -1.0710287e-02
   9.1069822e-03
   1.3499446e-02
   9.5190825e-03
   7.5920654e-03
   2.0889246e-03
  -1.5552016e-02
  -4.6072446e-02
  -7.9506968e-02
  -7.2325278e-02
   5.8949513e-02
   3.5945062e-01
   7.2719155e-01
   9.3288544e-01
   8.0577520e-01
   4.0601399e-01
  -9.3523449e-03
  -2.0341398e-01
  -1.4828483e-01
  -9.0440266e-03
   4.7534452e-02
   1.2029002e-02
  -9.2572132e-03
   3.6073359e-02
   8.1629099e-02
   5.9756803e-02
   1.0343143e-02
   1.2567845e-02
   5.6998158e-02
   6.6493406e-02
   2.4698178e-02
  -1.1844613e-03
   2.8603536e-02
   7.0654540e-02
   7.8240621e-02
   7.1701306e-02
   9.1817046e-02
   1.3169576e-01
   1.5778114e-01
   1.6721374e-01
   1.8324344e-01
   2.1040728e-01
   2.2952589e-01
   2.3232773e-01
   2.3544290e-01
   2.5647048e-01
   2.8901661e-01
   3.0742250e-01
   2.9554872e-01
   2.6670408e-01
   2.4575793e-01
   2.3288781e-01
   2.0469028e-01
   1.5665335e-01
   1.1633152e-01
   9.8037334e-02
   7.6275014e-02
   3.2147808e-02
  -5.0254872e-03
  -1.3835887e-03
   2.2494960e-02
   2.3249254e-02
   5.6176495e-03
   8.4497872e-03
   3.1384878e-02
   3.3486614e-02
   5.4831192e-03
  -1.3222646e-02
  -4.4031548e-04
   1.6804554e-02
   1.3199351e-02
   3.1763449e-03
   6.0087759e-03
   1.0792251e-02
   2.2401901e-03
  -7.1537767e-03
   2.4993768e-03
   2.3891762e-02
   3.1131383e-02
   1.4206051e-02
  -9.8250484e-03
  -1.6655548e-02
  -6.5502137e-04
   1.7189028e-02
   1.1855123e-02
  -1.1895872e-02
  -2.2479897e-02
  -6.7491087e-03
   9.6886798e-03
   4.4758781e-03
  -5.5105760e-03
   2.2299977e-03
   1.2369467e-02
  -1.8823411e-05
  -1.8886517e-02
  -1.0656503e-02
   1.4750322e-02
   1.5824874e-02
  -1.1590241e-02
  -2.6630742e-02
  -9.0281007e-03
   1.3456025e-02
   1.3734888e-02
   9.6477621e-04
  -7.1527923e-03
  -1.3358374e-02
  -2.5022246e-02
  -3.4964239e-02
  -3.3123462e-02
  -1.9956359e-02
  -1.0080464e-03
   1.6038744e-02
   1.8513305e-02
   1.4038303e-03
  -1.9197175e-02
  -2.4363667e-02
  -1.8709382e-02
  -1.7914879e-02
  -1.9312758e-02
  -1.0725030e-02
   5.8596260e-04
  -2.3736911e-03
  -1.4508108e-02
  -1.7413104e-02
  -1.4067076e-02
  -2.1936960e-02
  -3.5308748e-02
  -2.9338300e-02
  -2.0646227e-03
   2.0686222e-02
   2.5020096e-02
   2.3598844e-02
   2.7814450e-02
   3.3475495e-02
   3.7114331e-02
   4.1137403e-02
   4.1240618e-02
   3.2195050e-02
   2.4332882e-02
   2.9545879e-02
   3.4768677e-02
   1.6696126e-02
  -2.0007697e-02
  -4.6910486e-02
  -5.1995348e-02
  -4.8704992e-02
  -4.7886300e-02
  -4.8347257e-02
  -5.2448180e-02
  -6.3118817e-02
  -6.8713509e-02
  -6.0453257e-02
  -6.1273337e-02
  -9.9999144e-02
  -1.4579220e-01
  -9.7832355e-02
   1.3054806e-01
   5.0349916e-01
   8.3177049e-01
   8.7589989e-01
   5.4642058e-01
   3.4773469e-02
  -3.0948810e-01
  -2.9714652e-01
  -7.5058664e-02
   6.5562373e-02
   2.0141883e-02
  -6.8257729e-02
  -5.3773642e-02
   2.5226021e-02
   4.5307375e-02
  -1.1664126e-02
  -5.4569499e-02
  -3.0529064e-02
   1.0615059e-02
   6.3850840e-03
  -2.6783124e-02
  -2.6184714e-02
   2.3039428e-02
   6.8638140e-02
   6.7469837e-02
   4.5063052e-02
   5.4198091e-02
   9.7199743e-02
   1.3050881e-01
   1.3969075e-01
   1.5855063e-01
   2.0132695e-01
   2.3008910e-01
   2.2051920e-01
   2.1019264e-01
   2.3574335e-01
   2.6467519e-01
   2.4738254e-01
   2.0459324e-01
   1.9589164e-01
   2.1925032e-01
   2.1317955e-01
   1.5652232e-01
   9.7173763e-02
   7.0594932e-02
   5.2661145e-02
   1.5637213e-02
  -2.2245515e-02
  -3.3271523e-02
  -2.6702588e-02
  -2.7748150e-02
  -3.7452517e-02
  -4.0888444e-02
  -3.6538728e-02
  -3.4657099e-02
  -3.7647056e-02
  -3.8230395e-02
  -3.1309808e-02
  -2.0367540e-02
  -1.6174602e-02
  -2.7222065e-02
  -4.4785128e-02
  -4.6180583e-02
  -2.4461161e-02
  -3.1567232e-03
  -5.9038363e-03
  -2.4537830e-02
  -3.5616205e-02
  -3.3765016e-02
  -2.7395853e-02
  -1.7685397e-02
  -6.7798053e-03
  -1.0289811e-02
  -3.3265381e-02
  -4.9784925e-02
  -3.7578708e-02
  -1.7215147e-02
  -2.1998301e-02
  -4.3105139e-02
  -4.3800708e-02
  -1.8715084e-02
   1.3789788e-03
  -9.7584215e-04
  -1.4407683e-02
  -2.9754939e-02
  -4.8528666e-02
  -6.0808067e-02
  -5.1570432e-02
  -3.1155288e-02
  -2.5500526e-02
  -3.4335578e-02
  -3.2375701e-02
  -1.4061362e-02
  -3.0664036e-03
  -1.2082849e-02
  -2.4877116e-02
  -2.6065408e-02
  -2.1438181e-02
  -2.0976190e-02
  -2.4592546e-02
  -3.0424216e-02
  -3.7734681e-02
  -3.9393685e-02
  -2.9329159e-02
  -1.5763977e-02
  -9.8539723e-03
  -6.8610834e-03
   2.9673357e-03
   1.3722187e-02
   1.5170377e-02
   1.4312317e-02
   2.2315567e-02
   3.1243014e-02
   2.9180836e-02
   2.6064252e-02
   3.6124491e-02
   4.6964398e-02
   3.7075555e-02
   1.3370454e-02
  -9.9452255e-04
  -5.9739928e-03
  -1.7407549e-02
  -2.9524427e-02
  -2.2336443e-02
  -2.2168148e-03
   2.2279593e-03
  -1.5008400e-02
  -3.0781173e-02
  -3.3400542e-02
  -3.9537122e-02
  -6.6107535e-02
  -1.0439690e-01
  -1.1376043e-01
  -2.2527727e-02
   2.3111855e-01
   5.9995856e-01
   8.7940896e-01
   8.3979926e-01
   4.5646655e-01
  -2.2850972e-02
  -2.8551723e-01
  -2.3120630e-01
  -2.9564511e-02
   8.4729110e-02
   4.5055845e-02
  -2.8336825e-02
  -1.4316035e-02
   5.8572664e-02
   7.7744319e-02
   1.9283944e-02
  -2.3480926e-02
   1.1808741e-02
   6.5936349e-02
   6.1857702e-02
   2.7251501e-02
   3.8622531e-02
   9.0360010e-02
   1.0962395e-01
   8.3108286e-02
   7.7483784e-02
   1.2636715e-01
   1.7959597e-01
   1.9105035e-01
   1.8801907e-01
   2.1401174e-01
   2.5421669e-01
   2.6462259e-01
   2.4419094e-01
   2.3303771e-01
   2.5146380e-01
   2.7669914e-01
   2.7962598e-01
   2.5980839e-01
   2.3697977e-01
   2.2018345e-01
   1.9702730e-01
   1.5549199e-01
   1.0640501e-01
   7.0545133e-02
   4.8292944e-02
   2.3959592e-02
   2.9172723e-04
  -1.7666817e-03
   1.4010550e-02
   1.2800195e-02
  -1.5809988e-02
  -3.3765771e-02
  -1.4404185e-02
   1.0866551e-02
   3.8613997e-03
  -1.6558947e-02
  -9.5950973e-03
   1.5724542e-02
   1.8455367e-02
  -1.9635068e-03
  -8.3681926e-03
   7.1289446e-03
   1.5197940e-02
   8.2546376e-03
   1.2540119e-02
   3.3248107e-02
   3.8467491e-02
   1.3706623e-02
  -1.1026573e-02
  -8.7170814e-03
   5.5660777e-03
   4.9994831e-03
  -7.4819784e-03
  -1.1160329e-02
  -2.3974573e-03
   4.0954169e-03
   4.3016486e-04
  -3.9178657e-03
   2.6696728e-03
   1.4237877e-02
   9.5317459e-03
  -1.7984182e-02
  -3.8914817e-02
  -1.9699610e-02
   2.2801139e-02
   3.1623525e-02
  -1.1319762e-02
  -5.3176029e-02
  -4.3246540e-02
  -2.6015488e-03
   1.6259824e-02
   7.8117842e-03
   4.6298392e-03
   1.2878252e-02
   9.8230111e-03
  -4.5653658e-03
  -5.4704134e-03
   8.0115649e-03
   8.6175798e-03
  -9.9677445e-03
  -2.0968683e-02
  -9.3225233e-03
   7.1636581e-03
   1.1267032e-02
   1.0845966e-02
   1.9710396e-02
   3.7311525e-02
   5.4820069e-02
   6.4190555e-02
   6.0257444e-02
   4.9305316e-02
   4.9583611e-02
   6.5817020e-02
   7.4120546e-02
   5.4577944e-02
   2.6259739e-02
   2.1763630e-02
   3.7251965e-02
   3.9476131e-02
   1.7118125e-02
  -6.1602993e-03
  -9.0329664e-03
   4.2969040e-03
   1.8446561e-02
   2.1804761e-02
   8.7007833e-03
  -1.4172373e-02
  -2.8997625e-02
  -3.2509435e-02
  -4.8002266e-02
  -8.4194347e-02
  -8.7124375e-02
   3.6255134e-02
   3.2806027e-01
   7.0473568e-01
   9.6625559e-01
   9.1114341e-01
   5.1240799e-01
   2.7666894e-03
  -2.8325426e-01
  -2.1609991e-01
   1.0352205e-02
   1.1579155e-01
   4.4157671e-02
  -3.6076595e-02
  -1.0848602e-03
   7.8728656e-02
   8.0594598e-02
   1.3252059e-02
  -1.6471791e-02
   3.3271799e-02
   9.3071950e-02
   9.2481424e-02
   5.1563630e-02
   3.8728021e-02
   7.3850269e-02
   1.1134950e-01
   1.1419598e-01
   1.0724708e-01
   1.3456723e-01
   1.8829028e-01
   2.2026476e-01
   2.1835579e-01
   2.2365308e-01
   2.6039200e-01
   2.9662511e-01
   3.0032088e-01
   2.9084322e-01
   2.9830763e-01
   3.0954114e-01
   2.9795810e-01
   2.7570176e-01
   2.6753618e-01
   2.5768123e-01
   2.1537315e-01
   1.5657999e-01
   1.2590150e-01
   1.2555642e-01
   1.1555685e-01
   8.2540115e-02
   5.6632981e-02
   5.4384285e-02
   5.2825289e-02
   3.3192651e-02
   1.0989476e-02
   6.8077181e-03
   1.7378380e-02
   2.9016617e-02
   3.5684549e-02
   3.4249864e-02
   2.3693515e-02
   1.6432428e-02
   3.0205424e-02
   6.1358931e-02
   8.2391022e-02
   7.2104073e-02
   3.7773639e-02
   6.7555027e-03
   3.6158225e-03
   2.9897690e-02
   5.9058194e-02
   6.1773196e-02
   4.2645362e-02
   3.4480489e-02
   4.8696984e-02
   5.8024618e-02
   4.3139478e-02
   2.4410123e-02
   2.2579391e-02
   2.0360047e-02
  -2.3519426e-03
  -2.3466161e-02
  -1.0697195e-02
   2.2490875e-02
   3.7141161e-02
   3.0098204e-02
   3.0236790e-02
   4.3272095e-02
   4.5919768e-02
   3.2432261e-02
   2.4462770e-02
   3.1573229e-02
   3.8166145e-02
   3.3966820e-02
   2.6449040e-02
   1.9901505e-02
   1.0408211e-02
   3.7056657e-03
   1.1627302e-02
   2.8757297e-02
   3.5984188e-02
   2.8075513e-02
   1.7612545e-02
   1.4056802e-02
   1.7887079e-02
   2.9586739e-02
   4.4587089e-02
   4.6985418e-02
   2.9076594e-02
   8.8817802e-03
   8.1224365e-03
   2.3197643e-02
   3.8005648e-02
   5.1608248e-02
   6.9761337e-02
   8.3254043e-02
   8.1287979e-02
   7.4196916e-02
   7.6327650e-02
   7.8321047e-02
   6.3985091e-02
   4.3424818e-02
   4.0713082e-02
   5.7087168e-02
   7.1985708e-02
   7.1715341e-02
   5.4574832e-02
   2.1116901e-02
  -1.6000428e-02
  -2.8115989e-02
  -4.3081973e-03
   2.5556286e-02
   2.8908594e-02
   1.4364008e-02
   7.0482904e-03
  -5.1954545e-04
  -3.3729958e-02
  -8.2140616e-02
  -9.5058505e-02
  -2.2341280e-02
   1.6480271e-01
   4.6137478e-01
   7.8143535e-01
   9.4419756e-01
   7.9444931e-01
   3.7724708e-01
  -5.2128467e-02
  -2.4115280e-01
  -1.5939141e-01
   1.0335705e-02
   8.2530829e-02
   4.1289789e-02
   1.8864876e-03
   3.7498240e-02
   9.2439469e-02
   8.0156803e-02
   1.7044128e-02
  -2.8606850e-03
   4.8711992e-02
   9.4288463e-02
   7.4770980e-02
   3.8466523e-02
   5.6190921e-02
   1.0782816e-01
   1.2378291e-01
   1.0172697e-01
   1.0378003e-01
   1.5140018e-01
   1.9794830e-01
   2.1052585e-01
   2.1456042e-01
   2.4045228e-01
   2.7705953e-01
   3.0016982e-01
   3.0918172e-01
   3.1397104e-01
   3.1298662e-01
   3.0314010e-01
   2.9162940e-01
   2.8318080e-01
   2.6930345e-01
   2.3969478e-01
   1.9514275e-01
   1.4600426e-01
   1.0522331e-01
   8.0565235e-02
   6.7043441e-02
   5.3221941e-02
   3.9431792e-02
   3.6700628e-02
   4.3020356e-02
   4.1649668e-02
   3.1685148e-02
   3.3473999e-02
   4.9100497e-02
   4.8634050e-02
   1.8565370e-02
  -7.2555774e-03
   4.5660066e-03
   3.5970135e-02
   4.8799571e-02
   4.2236215e-02
   4.0314146e-02
   4.3304600e-02
   3.4419304e-02
   2.0899651e-02
   2.5527654e-02
   4.4515586e-02
   5.2434213e-02
   4.4086062e-02
   3.6513758e-02
   3.4628203e-02
   2.8815361e-02
   2.2025670e-02
   2.5695433e-02
   3.1841106e-02
   2.1656248e-02
   4.5961556e-04
  -6.5090380e-03
   6.8459151e-03
   2.0653432e-02
   2.1947730e-02
   1.8886646e-02
   2.0932722e-02
   2.7156104e-02
   3.5585622e-02
   4.6005575e-02
   5.3560371e-02
   5.3231300e-02
   4.6824980e-02
   3.5701448e-02
   1.7196790e-02
  -1.7183470e-03
  -3.9856749e-03
   1.1390148e-02
   2.2750814e-02
   2.0081248e-02
   2.1439055e-02
   3.6682585e-02
   4.3883925e-02
   2.8084535e-02
   1.4239248e-02
   2.7706562e-02
   4.7931082e-02
   4.0953878e-02
   1.7016734e-02
   1.2357741e-02
   2.8124805e-02
   3.2618078e-02
   1.8315950e-02
   1.3470846e-02
   3.4704649e-02
   6.4077468e-02
   7.8989692e-02
   7.7372929e-02
   6.8802301e-02
   6.2009142e-02
   6.2715598e-02
   6.8183651e-02
   6.8022755e-02
   6.2254707e-02
   6.5403475e-02
   7.7892934e-02
   7.3498637e-02
   3.7852829e-02
  -4.7945012e-04
  -5.3162985e-03
   1.7293710e-02
   3.3459632e-02
   3.0604293e-02
   2.2186652e-02
   1.6343023e-02
   9.3480676e-03
  -1.1771257e-03
  -2.1095458e-02
  -5.5440744e-02
  -6.3908219e-02
   5.1397146e-02
   3.4654536e-01
   7.1244682e-01
   9.0841951e-01
   7.6792857e-01
   3.6895849e-01
  -2.1087571e-02
  -1.7881740e-01
  -1.0587327e-01
   1.7311233e-02
   4.4109441e-02
   4.8029165e-04
  -6.0611759e-04
   6.3493407e-02
   1.0383210e-01
   6.8927647e-02
   2.5209436e-02
   4.6946117e-02
   9.9218211e-02
   1.0046069e-01
   5.4413103e-02
   3.8146856e-02
   7.8496041e-02
   1.2015860e-01
   1.1971690e-01
   1.0265454e-01
   1.0902822e-01
   1.3653262e-01
   1.6325017e-01
   1.8887035e-01
   2.2554925e-01
   2.6917704e-01
   3.0158038e-01
   3.1189943e-01
   3.0516551e-01
   2.9569213e-01
   2.9497462e-01
   3.0119811e-01
   3.0257964e-01
   2.9298414e-01
   2.7484760e-01
   2.4625335e-01
   2.0412174e-01
   1.6390155e-01
   1.4901228e-01
   1.5029196e-01
   1.2770070e-01
   7.0610488e-02
   2.2867462e-02
   2.1409200e-02
   4.2211469e-02
   4.1211728e-02
   2.0408727e-02
   1.2694884e-02
   2.2567063e-02
   2.6223007e-02
   1.8549050e-02
   1.7803865e-02
   2.8238586e-02
   3.4584709e-02
   3.2350941e-02
   3.3089643e-02
   4.0647071e-02
   4.7647297e-02
   5.2710727e-02
   5.8975631e-02
   6.0703297e-02
   5.1384961e-02
   3.7750146e-02
   2.7955297e-02
   1.7409027e-02
   4.1743293e-03
   2.5611336e-03
   2.0004303e-02
   3.6694478e-02
   3.1572561e-02
   1.3033034e-02
   8.5576695e-04
  -4.9168631e-03
  -1.2298651e-02
  -1.3275920e-02
   3.9483830e-04
   1.3896430e-02
   1.0926847e-02
   3.4104442e-03
   1.0578313e-02
   2.3541297e-02
   2.1662544e-02
   1.0689033e-02
   1.1803211e-02
   2.2563427e-02
   2.1179749e-02
   4.0480931e-03
  -1.0039552e-02
  -9.6463845e-03
  -3.2648363e-04
   1.1225903e-02
   2.2151392e-02
   2.9113069e-02
   3.6120155e-02
   5.5603699e-02
   8.4932786e-02
   9.7426395e-02
   7.6893076e-02
   4.4933956e-02
   3.2202372e-02
   3.8943691e-02
   4.6678113e-02
   5.1012693e-02
   5.6865330e-02
   5.7349599e-02
   4.4527972e-02
   2.8149941e-02
   1.9632073e-02
   1.1681477e-02
  -3.3416342e-03
  -1.2158723e-02
  -2.8651158e-03
   9.2525861e-03
   5.4798112e-03
  -3.7306869e-03
   6.5899759e-04
   7.5007831e-03
  -1.1963604e-02
  -5.9312297e-02
  -9.5699353e-02
  -6.0448672e-02
   1.0491719e-01
   4.0695555e-01
   7.3334628e-01
   8.7470370e-01
   6.9118164e-01
   2.7365684e-01
  -1.0672648e-01
  -2.3572153e-01
  -1.3023764e-01
   2.2026376e-02
   6.6751125e-02
   1.1826326e-02
  -2.8815172e-02
   1.0850471e-02
   7.6239134e-02
   7.8349638e-02
   1.9282174e-02
  -1.4633165e-02
   2.1736361e-02
   7.3951153e-02
   7.6876905e-02
   4.6665258e-02
   4.1611138e-02
   7.1973579e-02
   1.0058221e-01
   1.0927418e-01
   1.1446349e-01
   1.2882944e-01
   1.5100597e-01
   1.8516689e-01
   2.3245324e-01
   2.7031996e-01
   2.7626585e-01
   2.6561307e-01
   2.7123038e-01
   2.9153686e-01
   2.9391121e-01
   2.6835600e-01
   2.4359865e-01
   2.4364725e-01
   2.5421322e-01
   2.4125922e-01
   1.8902738e-01
   1.1655111e-01
   6.3037377e-02
   5.1167453e-02
   6.0396222e-02
   5.0317422e-02
   1.4811323e-02
  -1.0087944e-02
  -1.5972662e-03
   1.6314464e-02
   1.3359862e-02
  -2.9567546e-03
  -9.6503915e-03
  -8.3356985e-03
  -1.2577519e-02
  -1.6503848e-02
  -7.4950842e-03
   6.4961523e-03
   1.1461855e-02
   1.3646358e-02
   2.3848563e-02
   3.1545057e-02
   2.2731313e-02
   8.4142600e-03
   7.3903534e-03
   1.4798449e-02
   1.4719717e-02
   9.5720860e-03
   1.0060045e-02
   1.0515335e-02
   1.7206581e-03
  -5.7145255e-03
   1.8256189e-03
   1.4556733e-02
   1.7236004e-02
   1.9693794e-02
   4.0241486e-02
   6.9864307e-02
   8.2266872e-02
   7.2457077e-02
   6.0117908e-02
   6.1201421e-02
   7.7296596e-02
   1.0440434e-01
   1.3293187e-01
   1.4980537e-01
   1.5847561e-01
   1.8291726e-01
   2.3333163e-01
   2.8393929e-01
   3.0475288e-01
   2.9900932e-01
   2.8932287e-01
   2.8504729e-01
   2.8437993e-01
   2.8862871e-01
   2.9017218e-01
   2.6561468e-01
   2.0730166e-01
   1.4485450e-01
   1.0990249e-01
   9.5740701e-02
   7.6511934e-02
   4.8330739e-02
   2.4460883e-02
   6.6831688e-03
  -9.8263950e-03
  -1.6918851e-02
  -6.1714484e-03
   1.0480192e-02
   1.6664894e-02
   1.5213800e-02
   1.4387435e-02
   7.6026949e-03
  -8.7324717e-03
  -1.5046562e-02
   5.5650909e-03
   3.5610970e-02
   4.5137439e-02
   3.3771249e-02
   2.4955179e-02
   2.8830538e-02
   3.5309626e-02
   3.5188806e-02
   2.7195547e-02
   1.3196902e-02
   2.5962217e-03
   8.0402988e-03
   2.2582425e-02
   2.0758235e-02
  -1.3137588e-03
  -1.1686995e-02
   9.5794091e-03
   3.4454442e-02
   2.7765413e-02
   1.4806771e-03
  -5.1821703e-03
   1.5872394e-02
   3.5978876e-02
   3.2774981e-02
   1.1139413e-02
  -1.1039218e-02
  -1.5767309e-02
   6.2813335e-03
   4.0451199e-02
   5.4260565e-02
   3.6355740e-02
   1.2859058e-02
   8.0339836e-03
   1.1209149e-02
   4.6142154e-03
  -1.1241989e-03
   1.0931201e-02
   2.7377786e-02
   2.3703186e-02
   6.2573309e-03
   2.4613895e-03
   1.7877044e-02
   3.2033221e-02
   3.1990361e-02
   2.6215326e-02
   2.8291933e-02
   4.3526337e-02
   6.5925779e-02
   7.8318577e-02
   6.8093298e-02
   5.0540116e-02
   5.5471897e-02
   8.1002990e-02
   8.9019282e-02
   6.1837407e-02
   3.0846467e-02
   2.6161783e-02
   3.1310147e-02
   1.8487988e-02
  -2.0909040e-03
  -5.3300618e-03
   1.4848198e-03
  -4.4405418e-03
  -1.5236592e-02
  -4.9503799e-03
   2.1282667e-02
   2.7982559e-02
  -4.7334388e-03
  -6.1770449e-02
  -1.0444207e-01
  -6.9876075e-02
   1.1557856e-01
   4.5753997e-01
   8.1359564e-01
   9.4951176e-01
   7.3495167e-01
   2.9031426e-01
  -9.2154225e-02
  -2.0159488e-01
  -8.5909674e-02
   3.6514467e-02
   3.2977802e-02
  -2.0688650e-02
   7.6910728e-03
   1.0001394e-01
   1.2064728e-01
   3.0510498e-02
  -4.7452912e-02
  -1.0335778e-02
   7.8787427e-02
   9.8031921e-02
   4.5226701e-02
   1.6702568e-02
   4.9818777e-02
   8.6472508e-02
   8.5956296e-02
   8.3511642e-02
   1.1687503e-01
   1.6432625e-01
   1.8907804e-01
   1.9836415e-01
   2.2229389e-01
   2.6128711e-01
   2.8768055e-01
   2.8862616e-01
   2.8210622e-01
   2.8923859e-01
   3.0595721e-01
   3.1113772e-01
   2.9810634e-01
   2.8329544e-01
   2.7549596e-01
   2.5378415e-01
   1.9912195e-01
   1.3534802e-01
   1.0394274e-01
   1.0171935e-01
   8.4961804e-02
   4.0652789e-02
   7.8238836e-03
   1.2659713e-02
   2.8597274e-02
   2.5968658e-02
   1.7702480e-02
   2.2892858e-02
   2.4508760e-02
   3.3592256e-03
  -1.8004428e-02
  -8.5565714e-03
   1.8336450e-02
   2.7693997e-02
   1.9167137e-02
   1.8654398e-02
   2.8802247e-02
   2.9834700e-02
   2.0829786e-02
   2.0538846e-02
   3.0151426e-02
   3.0030264e-02
   1.4658446e-02
   2.5568851e-03
   8.2995736e-03
   2.5034301e-02
   3.6232591e-02
   3.1233891e-02
   1.2381906e-02
  -3.6593240e-03
  -1.7817800e-04
   1.6366636e-02
   2.1128489e-02
   6.0543025e-03
  -8.8753146e-03
  -8.5013749e-03
  -3.2554301e-03
  -5.0892097e-03
  -8.1589269e-03
  -8.1574653e-03
  -1.3870196e-02
  -2.2706618e-02
  -1.4013120e-02
   1.2986519e-02
   2.5596572e-02
   7.3274300e-03
  -9.4060424e-03
   8.5606827e-03
   4.1149091e-02
   4.4663327e-02
   1.5050841e-02
  -1.4172456e-02
  -2.2624847e-02
  -1.8024282e-02
  -1.0659531e-02
  -3.2602767e-03
  -3.2899129e-05
  -1.6025832e-03
   2.5553855e-03
   1.7890931e-02
   3.0792200e-02
   2.7106867e-02
   1.1924245e-02
  -3.5664895e-03
  -1.8023090e-02
  -2.7683917e-02
  -1.8980983e-02
   7.5470875e-03
   2.5909169e-02
   1.7704818e-02
  -1.5201843e-03
  -7.4550956e-03
   1.4094000e-03
   1.5388415e-02
   3.3610998e-02
   5.1751728e-02
   5.3559525e-02
   3.8188979e-02
   3.3224211e-02
   5.5378608e-02
   7.9941331e-02
   7.6195281e-02
   5.2860475e-02
   3.9390336e-02
   3.9774091e-02
   3.5033205e-02
   1.8609600e-02
   1.0607464e-03
  -1.1162090e-02
  -1.7801451e-02
  -1.4444822e-02
  -4.9239965e-04
   1.1275260e-02
   9.8650069e-03
   5.9918854e-04
  -9.7287689e-03
  -2.9665323e-02
  -6.8859338e-02
  -1.1105481e-01
  -1.0391672e-01
   2.7112828e-02
   3.2460802e-01
   7.0882239e-01
   9.5572938e-01
   8.5414743e-01
   4.3405413e-01
  -1.5253472e-02
  -2.1291688e-01
  -1.4426621e-01
  -1.0611727e-02
   3.0404577e-02
  -1.6559652e-03
  -1.5036638e-02
   1.1472820e-02
   2.9902620e-02
   1.4064338e-02
  -6.0011877e-03
   5.3279938e-03
   3.9191065e-02
   5.8233151e-02
   5.0309938e-02
   4.3343161e-02
   5.9199362e-02
   7.6623758e-02
   6.6442947e-02
   4.6682813e-02
   6.2161209e-02
   1.1407925e-01
   1.5655341e-01
   1.6936718e-01
   1.8439031e-01
   2.2273399e-01
   2.5650826e-01
   2.6195750e-01
   2.6405232e-01
   2.8969586e-01
   3.1547380e-01
   3.0610526e-01
   2.7486267e-01
   2.5937412e-01
   2.5853123e-01
   2.3970141e-01
   1.9588153e-01
   1.5245073e-01
   1.2275802e-01
   9.4866453e-02
   6.1825183e-02
   3.3997212e-02
   1.8940504e-02
   1.1757113e-02
   6.5150898e-03
   1.2094206e-03
  -6.0022842e-03
  -1.3110727e-02
  -1.2573651e-02
  -2.7825943e-03
   7.3958631e-03
   1.1772635e-02
   1.2016847e-02
   6.6276215e-03
  -6.4321979e-03
  -1.3495727e-02
   2.6432411e-03
   2.8905890e-02
   3.1045520e-02
   5.8701245e-03
  -1.0226649e-02
   1.2335158e-03
   1.3106696e-02
   3.4165478e-03
  -5.7331922e-03
   9.2713907e-03
   2.6952955e-02
   1.4675731e-02
  -1.6377851e-02
  -2.9132186e-02
  -1.6483348e-02
  -3.6940480e-03
  -6.7672016e-03
  -1.9287018e-02
  -3.1701697e-02
  -3.7801968e-02
  -3.0567894e-02
  -1.3038889e-02
  -3.6108198e-03
  -1.2657152e-02
  -2.6138452e-02
  -2.8081757e-02
  -2.3360863e-02
  -2.1990350e-02
  -1.9463370e-02
  -1.1426773e-02
  -9.8331302e-03
  -2.4509932e-02
  -4.4072335e-02
  -5.2526406e-02
  -4.9556693e-02
  -4.0634625e-02
  -2.6144359e-02
  -1.4021697e-02
  -2.0586354e-02
  -4.2689058e-02
  -5.2394098e-02
  -3.6732553e-02
  -1.8499223e-02
  -1.8848337e-02
  -2.4366152e-02
  -1.3219990e-02
   9.1722253e-03
   2.4149899e-02
   2.9408106e-02
   3.2481656e-02
   3.2869859e-02
   3.0347141e-02
   3.3120783e-02
   4.1550913e-02
   4.3913621e-02
   4.0702571e-02
   4.6034746e-02
   5.1031914e-02
   2.1260392e-02
  -4.5502768e-02
  -9.4507650e-02
  -8.0779694e-02
  -3.2519996e-02
  -1.0931894e-02
  -2.8550997e-02
  -4.6403360e-02
  -3.8700025e-02
  -2.3276643e-02
  -3.2007739e-02
  -7.5171152e-02
  -1.2324490e-01
  -1.0047128e-01
   7.8671014e-02
   4.1379255e-01
   7.5140940e-01
   8.6155757e-01
   6.3063909e-01
   1.8882929e-01
  -1.7640021e-01
  -2.6371881e-01
  -1.2651633e-01
   1.3887359e-02
   2.1195511e-02
  -3.1242230e-02
  -9.3437517e-03
   7.5202271e-02
   9.3535539e-02
   7.0948212e-03
  -6.8972235e-02
  -3.9090409e-02
   3.8100144e-02
   5.3847980e-02
   1.1628576e-02
  -1.2278378e-03
   4.0595238e-02
   7.6278827e-02
   6.9245570e-02
   5.8368187e-02
   8.5224365e-02
   1.3330078e-01
   1.6510546e-01
   1.7749207e-01
   1.9222131e-01
   2.1633492e-01
   2.3749946e-01
   2.4871524e-01
   2.5832021e-01
   2.7349897e-01
   2.8393078e-01
   2.7193144e-01
   2.4010705e-01
   2.1517218e-01
   2.1170160e-01
   2.0623842e-01
   1.7020288e-01
   1.1632781e-01
   8.0202137e-02
   6.3554557e-02
   3.6532375e-02
  -4.3289299e-03
  -2.7234169e-02
  -2.2967936e-02
  -2.3003373e-02
  -4.1940694e-02
  -4.9681713e-02
  -2.7435061e-02
  -6.8398536e-03
  -1.9129582e-02
  -4.3427181e-02
  -4.3747258e-02
  -2.5652010e-02
  -1.6032624e-02
  -1.3079390e-02
   1.0323933e-03
   1.6635069e-02
   8.4200689e-03
  -1.8967312e-02
  -3.4584196e-02
  -2.6758957e-02
  -1.4898392e-02
  -1.6939886e-02
  -2.8540835e-02
  -3.5028059e-02
  -2.8463817e-02
  -1.3962817e-02
  -6.6484073e-03
  -1.5767204e-02
  -2.9574549e-02
  -2.9993673e-02
  -2.2015373e-02
  -2.5518163e-02
  -3.6367420e-02
  -2.7545059e-02
   1.9922162e-03
   1.5024659e-02
  -9.4370565e-03
  -4.2012696e-02
  -4.6432681e-02
  -2.9023398e-02
  -1.9627415e-02
  -2.6961006e-02
  -3.8342918e-02
  -4.4441152e-02
  -4.1532221e-02
  -2.6402422e-02
  -8.1088382e-03
  -7.1806531e-03
  -2.6759744e-02
  -4.3411695e-02
  -4.0430390e-02
  -2.7637089e-02
  -1.4961668e-02
   5.2553597e-03
   3.1847417e-02
   4.0680374e-02
   2.0840909e-02
  -8.5550367e-04
   3.4394515e-03
   2.3782678e-02
   3.4198615e-02
   3.1178853e-02
   2.5089707e-02
   1.3715617e-02
  -8.0460884e-03
  -2.7427921e-02
  -2.8613481e-02
  -1.7898263e-02
  -1.3783125e-02
  -2.1568589e-02
  -3.3156239e-02
  -4.1255307e-02
  -4.2124599e-02
  -3.7478348e-02
  -4.3074793e-02
  -7.8363502e-02
  -1.3370623e-01
  -1.5578765e-01
  -7.1294680e-02
   1.6979694e-01
   5.3726915e-01
   8.7003252e-01
   9.2770812e-01
   5.9532123e-01
   6.0101652e-02
  -3.0544353e-01
  -2.9980749e-01
  -8.1910819e-02
   4.6219103e-02
  -1.4138424e-02
  -1.0971592e-01
  -9.0171897e-02
   6.2244486e-03
   4.8740427e-02
   4.7569920e-03
  -3.9528612e-02
  -1.7618327e-02
   3.1767933e-02
   3.5863290e-02
  -2.8165003e-03
  -1.4721978e-02
   3.0841119e-02
   8.1201788e-02
   8.1974261e-02
   5.7532715e-02
   6.6851707e-02
   1.1165118e-01
   1.4672523e-01
   1.6435770e-01
   1.9994795e-01
   2.5268719e-01
   2.7285170e-01
   2.4790722e-01
   2.3360888e-01
   2.6506983e-01
   2.9672208e-01
   2.7562030e-01
   2.2408110e-01
   1.9634523e-01
   1.9128868e-01
   1.6635971e-01
   1.1458347e-01
   7.0205026e-02
   4.7364165e-02
   2.4282677e-02
  -1.0479728e-02
  -3.7486353e-02
  -3.9948772e-02
  -2.8751168e-02
  -2.5285305e-02
  -3.7205733e-02
  -5.6153349e-02
  -6.8285360e-02
  -6.5684057e-02
  -5.3312889e-02
  -4.2592067e-02
  -3.7612564e-02
  -3.5425974e-02
  -3.6858603e-02
  -4.2618247e-02
  -4.2726531e-02
  -2.9867196e-02
  -1.8928521e-02
  -2.7689660e-02
  -4.2183048e-02
  -3.3503597e-02
  -7.7032473e-03
  -7.5850151e-04
  -2.0518376e-02
  -3.6106249e-02
  -3.3962029e-02
  -3.8252044e-02
  -5.8815365e-02
  -6.6027863e-02
  -4.3355895e-02
  -2.1309784e-02
  -2.6707893e-02
  -3.7069913e-02
  -2.3111400e-02
  -3.4229769e-03
  -1.4089154e-02
  -4.7441155e-02
  -6.4317856e-02
  -5.3650710e-02
  -4.0521154e-02
  -4.1226505e-02
  -4.4311877e-02
  -3.6793210e-02
  -2.4170792e-02
  -2.0414593e-02
  -3.1460561e-02
  -4.9477742e-02
  -5.8989771e-02
  -5.4295624e-02
  -4.9860998e-02
  -5.9952622e-02
  -7.1408785e-02
  -5.9253337e-02
  -2.8573228e-02
  -1.2141856e-02
  -2.2405884e-02
  -3.6724059e-02
  -3.7243360e-02
  -3.2129325e-02
  -2.7225562e-02
  -1.2238561e-02
   1.0076028e-02
   1.6149513e-02
   1.7012389e-03
  -4.0065045e-03
   1.4878217e-02
   3.2048826e-02
   2.1682791e-02
  -2.2360252e-04
  -4.5948181e-03
   6.1398250e-03
   9.8738346e-03
   5.5877364e-04
  -1.3319903e-02
  -2.8349401e-02
  -4.2081962e-02
  -4.5634818e-02
  -3.8889894e-02
  -3.6100341e-02
  -4.1155160e-02
  -3.7948929e-02
  -2.1822920e-02
  -1.8733470e-02
  -5.3138955e-02
  -1.1111797e-01
  -1.4485145e-01
  -9.4113187e-02
   9.4269469e-02
   4.1691855e-01
   7.5204850e-01
   8.9171819e-01
   7.0378019e-01
   2.7589551e-01
  -1.3100313e-01
  -2.9355196e-01
  -1.9860654e-01
  -2.0569711e-02
   6.0898761e-02
   2.0897914e-02
  -2.8634912e-02
  -1.5183197e-03
   5.8123990e-02
   5.8282140e-02
   9.7646685e-04
  -2.6067437e-02
   1.3588362e-02
   5.6564751e-02
   4.6651766e-02
   1.6863368e-02
   2.3634396e-02
   5.7413924e-02
   7.3090516e-02
   7.0627040e-02
   8.8107190e-02
   1.3434425e-01
   1.7907242e-01
   2.0246066e-01
   2.1403460e-01
   2.2530034e-01
   2.3571942e-01
   2.4619268e-01
   2.6238227e-01
   2.8284259e-01
   2.9842342e-01
   3.0216595e-01
   2.9167590e-01
   2.6780594e-01
   2.3659333e-01
   2.0393355e-01
   1.6691191e-01
   1.2289608e-01
   8.4347236e-02
   6.5110356e-02
   5.5358937e-02
   3.5612040e-02
   1.2734746e-02
   9.8947153e-03
   2.0766435e-02
   1.2461073e-02
  -1.8867218e-02
  -3.6221010e-02
  -1.9582314e-02
   4.1884078e-03
   8.6335300e-03
   7.1138689e-03
   2.0131036e-02
   3.6247424e-02
   3.4038805e-02
   1.7756388e-02
   5.0200298e-03
  -2.9380022e-04
  -1.3477157e-03
   5.0466519e-03
   1.6375641e-02
   1.9891324e-02
   1.6388645e-02
   2.5096602e-02
   4.8387328e-02
   5.7638455e-02
   3.4580411e-02
   2.8749762e-03
  -3.3443780e-03
   1.7599460e-02
   4.2752118e-02
   5.5685398e-02
   5.1778375e-02
   3.1960349e-02
   9.4430308e-03
   5.1870093e-03
   2.0527983e-02
   3.1019869e-02
   2.0711706e-02
   4.3543362e-03
   3.2164108e-03
   1.7494063e-02
   3.3925946e-02
   4.2025173e-02
   3.4006929e-02
   9.4944397e-03
  -1.1949332e-02
  -5.7607515e-03
   2.3094490e-02
   4.4472484e-02
   4.6272710e-02
   4.4328350e-02
   4.4659430e-02
   3.1949068e-02
   6.7677383e-03
  -3.4791311e-03
   1.1352612e-02
   2.4141399e-02
   1.5803220e-02
   8.2075595e-03
   2.7132944e-02
   6.0281586e-02
   7.8286529e-02
   7.5087778e-02
   6.4068192e-02
   5.4109323e-02
   5.0392151e-02
   5.9915830e-02
   7.7374508e-02
   8.3267030e-02
   7.1366320e-02
   5.9149731e-02
   5.7874396e-02
   5.4692855e-02
   3.9150794e-02
   2.4076206e-02
   2.2869605e-02
   2.6845804e-02
   2.2167994e-02
   1.1257161e-02
   3.2289370e-03
   2.7120252e-04
   3.3471438e-03
   1.1071820e-02
   5.3477837e-03
  -3.3351645e-02
  -7.7971636e-02
  -4.4419970e-02
   1.4308974e-01
   4.6836389e-01
   7.9735793e-01
   9.3556335e-01
   7.5559068e-01
   3.2741310e-01
  -8.6774960e-02
  -2.3769530e-01
  -1.1701435e-01
   5.9514676e-02
   1.0671807e-01
   4.9224038e-02
   2.2651550e-02
   7.1012733e-02
   1.1588943e-01
   9.3421771e-02
   3.9162793e-02
   2.3663627e-02
   5.7775756e-02
   9.2767797e-02
   9.2381065e-02
   7.5222872e-02
   8.1500082e-02
   1.1436814e-01
   1.3636524e-01
   1.2815959e-01
   1.2334982e-01
   1.5992859e-01
   2.1920947e-01
   2.5207330e-01
   2.5356622e-01
   2.6416546e-01
   2.9837009e-01
   3.2381888e-01
   3.2240313e-01
   3.2171672e-01
   3.4327607e-01
   3.6274265e-01
   3.4994488e-01
   3.1364835e-01
   2.7790541e-01
   2.4306932e-01
   1.9910316e-01
   1.5428090e-01
   1.2331978e-01
   1.0385699e-01
   8.5801577e-02
   6.8804574e-02
   5.5398108e-02
   4.3820639e-02
   3.8475937e-02
   4.6774208e-02
   5.6889272e-02
   4.4778070e-02
   1.4249601e-02
   9.0535110e-04
   2.1230745e-02
   4.6845522e-02
   4.7859770e-02
   3.4349629e-02
   3.2868308e-02
   4.5050497e-02
   5.2938684e-02
   4.8714546e-02
   3.9183883e-02
   3.2800280e-02
   3.5281307e-02
   4.6122381e-02
   5.2863885e-02
   4.4152266e-02
   3.0515176e-02
   3.1398368e-02
   4.1456664e-02
   3.7100039e-02
   1.8517251e-02
   1.2700329e-02
   2.8225983e-02
   4.1335347e-02
   3.7499442e-02
   3.2099497e-02
   3.5549087e-02
   3.2318632e-02
   1.3622938e-02
  -1.0649732e-05
   9.6790386e-03
   3.0001323e-02
   3.9666629e-02
   3.7183505e-02
   3.0513840e-02
   2.0999222e-02
   1.2770404e-02
   1.5980634e-02
   2.7075371e-02
   2.8098160e-02
   1.6968132e-02
   1.3889782e-02
   2.6609314e-02
   3.6694667e-02
   3.3629777e-02
   3.4607313e-02
   5.3887249e-02
   7.7663807e-02
   8.7002256e-02
   8.4305175e-02
   8.1677879e-02
   8.2515353e-02
   8.6719990e-02
   9.4591770e-02
   9.7137445e-02
   8.4224915e-02
   6.7347171e-02
   6.7790805e-02
   7.7563721e-02
   6.4578209e-02
   2.5572429e-02
  -1.4995644e-03
   7.2123965e-03
   2.7555919e-02
   2.7673590e-02
   1.1492636e-02
   5.8911026e-04
  -1.3451287e-03
  -5.1870229e-03
  -1.8354294e-02
  -4.1589660e-02
  -5.3436919e-02
   1.5102858e-02
   2.4194766e-01
   5.9995594e-01
   9.0086302e-01
   9.1599223e-01
   5.8926321e-01
   1.2154516e-01
  -1.8398295e-01
  -1.8331514e-01
  -4.1001147e-03
   1.1217719e-01
   7.1082601e-02
  -8.6848332e-03
   8.4918130e-03
   8.9136359e-02
   1.0557583e-01
   4.0598026e-02
   7.1399947e-03
   6.6160802e-02
   1.3659324e-01
   1.2814398e-01
   7.2861084e-02
   5.7438288e-02
   8.8698615e-02
   1.0638990e-01
   9.5024308e-02
   1.0186996e-01
   1.4902750e-01
   1.9619513e-01
   2.0649399e-01
   2.0110933e-01
   2.2294672e-01
   2.7292654e-01
   3.0973740e-01
   3.0576676e-01
   2.8166899e-01
   2.7687973e-01
   2.9745951e-01
   3.1221317e-01
   3.0048505e-01
   2.7767417e-01
   2.5959915e-01
   2.3068112e-01
   1.7664704e-01
   1.2378061e-01
   1.0463556e-01
   1.0189690e-01
   7.4296123e-02
   2.8474609e-02
   1.1219760e-02
   3.1152512e-02
   4.5611058e-02
   3.4726835e-02
   3.0253826e-02
   5.0260686e-02
   6.0685099e-02
   3.4230894e-02
   1.6121164e-03
   5.3492059e-03
   3.6153735e-02
   5.3531429e-02
   4.5399298e-02
   3.2167829e-02
   2.9015932e-02
   3.4848487e-02
   4.6692683e-02
   6.0197533e-02
   6.4690523e-02
   5.5675954e-02
   4.3605947e-02
   3.8764760e-02
   3.9085046e-02
   4.0885154e-02
   4.6365370e-02
   5.2821601e-02
   5.0905827e-02
   4.0686690e-02
   3.3379236e-02
   3.2863761e-02
   3.2670654e-02
   3.2519901e-02
   3.7680231e-02
   4.2213209e-02
   3.6027669e-02
   2.7443937e-02
   3.2634634e-02
   4.4384498e-02
   4.1022576e-02
   2.5018296e-02
   1.9470110e-02
   2.6819472e-02
   2.8549871e-02
   2.7359618e-02
   4.6429086e-02
   7.8807396e-02
   8.3262402e-02
   4.7503801e-02
   1.3672041e-02
   1.8940189e-02
   4.7752141e-02
   6.6726195e-02
   7.2289335e-02
   7.6030583e-02
   7.2524275e-02
   5.2892917e-02
   3.0137724e-02
   2.3256968e-02
   2.9847100e-02
   3.5402730e-02
   3.7657763e-02
   4.4660981e-02
   5.8726351e-02
   7.4634012e-02
   8.5603698e-02
   8.6440606e-02
   8.1205463e-02
   8.5677027e-02
   1.0597059e-01
   1.2093181e-01
   1.0910080e-01
   8.5317150e-02
   7.9165211e-02
   8.3225126e-02
   6.3011844e-02
   1.9596948e-02
  -2.5753692e-03
   1.8029681e-02
   4.7997521e-02
   5.1192367e-02
   3.5760043e-02
   2.7534947e-02
   2.8597212e-02
   2.4870297e-02
   8.9497537e-03
  -2.1060020e-02
  -5.2756604e-02
  -2.7442366e-02
   1.4267285e-01
   4.7225065e-01
   8.2075136e-01
   9.5985009e-01
   7.6271565e-01
   3.3791358e-01
  -3.8955968e-02
  -1.5647286e-01
  -4.6208288e-02
   8.2427327e-02
   8.6345353e-02
   2.4446542e-02
   2.6827149e-02
   9.5923342e-02
   1.2158066e-01
   6.4004041e-02
   1.2804732e-02
   4.2385271e-02
   1.0312098e-01
   1.0965795e-01
   6.9092633e-02
   5.3657503e-02
   8.6191966e-02
   1.2145239e-01
   1.2659528e-01
   1.2172319e-01
   1.3685151e-01
   1.7034338e-01
   2.0199767e-01
   2.2322193e-01
   2.4196515e-01
   2.6696394e-01
   2.9437803e-01
   3.1126273e-01
   3.1302089e-01
   3.1098032e-01
   3.1516841e-01
   3.1859291e-01
   3.1133140e-01
   2.9851883e-01
   2.8546641e-01
   2.5843191e-01
   2.0649819e-01
   1.5077983e-01
   1.2024555e-01
   1.0770405e-01
   8.4896302e-02
   5.3262344e-02
   3.9199396e-02
   4.3185766e-02
   3.8677925e-02
   2.3187152e-02
   2.3237348e-02
   4.0537139e-02
   4.0789530e-02
   1.1317785e-02
  -1.4241274e-02
  -8.3373314e-03
   1.3031624e-02
   2.6088280e-02
   3.4813835e-02
   4.6894458e-02
   4.8813433e-02
   3.2607146e-02
   1.9334708e-02
   2.7947166e-02
   4.2789734e-02
   3.8070538e-02
   1.7615157e-02
   7.0272522e-03
   1.8320700e-02
   4.0239103e-02
   5.4590275e-02
   5.0839663e-02
   3.3501901e-02
   2.0218088e-02
   2.1722405e-02
   2.4816904e-02
   1.1335670e-02
  -1.0082090e-02
  -1.3706015e-02
   4.4953113e-03
   2.3258041e-02
   2.9550427e-02
   2.8402399e-02
   2.1050110e-02
   3.8084107e-03
  -1.1165935e-02
  -6.0920384e-03
   1.0018211e-02
   1.2103049e-02
   3.1951929e-03
   1.0871289e-02
   3.5810297e-02
   4.4471247e-02
   2.3375253e-02
   1.2951104e-03
   2.3046824e-03
   1.3123966e-02
   1.5033250e-02
   1.4578641e-02
   2.1460006e-02
   2.4518263e-02
   1.2024118e-02
  -5.8258640e-03
  -1.3163704e-02
  -9.2888164e-03
  -3.7012393e-04
   1.1315473e-02
   2.0011044e-02
   1.7444238e-02
   9.1498294e-03
   1.1172044e-02
   2.5564905e-02
   3.9164571e-02
   4.8503575e-02
   6.2166974e-02
   7.7182094e-02
   7.9998277e-02
   7.3297711e-02
   7.3312807e-02
   7.7892646e-02
   6.7911094e-02
   4.4624614e-02
   3.3435727e-02
   4.3367267e-02
   5.4342843e-02
   5.2856778e-02
   4.8547227e-02
   4.5834806e-02
   3.1491255e-02
   3.7415864e-03
  -1.5395614e-02
  -1.1532292e-02
   2.3867752e-03
   8.7096784e-03
   3.4316080e-03
  -1.6517132e-02
  -5.5540318e-02
  -9.0784426e-02
  -5.9151050e-02
   1.0585577e-01
   4.1251779e-01
   7.6467329e-01
   9.7152090e-01
   8.5926360e-01
   4.4359112e-01
  -2.0981113e-02
  -2.4120951e-01
  -1.5948314e-01
   1.9084830e-02
   8.2637493e-02
   2.8264075e-02
  -8.7300821e-03
   3.4280225e-02
   8.7511510e-02
   7.4780430e-02
   1.7212702e-02
  -1.1896506e-02
   1.1545220e-02
   4.4564520e-02
   4.7217337e-02
   3.4577964e-02
   4.4368976e-02
   7.5250870e-02
   9.0940381e-02
   8.3664528e-02
   9.2139204e-02
   1.3821676e-01
   1.8631941e-01
   2.0002589e-01
   2.0251898e-01
   2.3295092e-01
   2.7218099e-01
   2.7283482e-01
   2.4604868e-01
   2.4894714e-01
   2.8713386e-01
   3.0104488e-01
   2.6359415e-01
   2.2328989e-01
   2.2190054e-01
   2.2889546e-01
   1.9733309e-01
   1.3824793e-01
   9.4448326e-02
   7.3008451e-02
   4.9031058e-02
   1.7200121e-02
  -1.6276216e-03
   1.6822772e-03
   1.1261665e-02
   1.0854399e-02
   2.4794044e-03
  -6.7157768e-04
   9.0920476e-03
   2.3661301e-02
   2.5117656e-02
   7.7511741e-03
  -1.0750966e-02
  -1.1169030e-02
   1.8284833e-03
   1.1392904e-02
   1.5266538e-02
   2.0454967e-02
   2.2640201e-02
   1.6301916e-02
   1.3942638e-02
   2.5668900e-02
   3.1463176e-02
   9.1383398e-03
  -2.0536733e-02
  -1.8344177e-02
   9.8166714e-03
   2.0337532e-02
   2.9465009e-03
  -5.5234042e-03
   1.3013433e-02
   2.8226399e-02
   1.6004532e-02
  -1.7514387e-03
   2.5373968e-03
   1.7486769e-02
   1.6124249e-02
  -2.0056066e-03
  -1.7034627e-02
  -1.8269764e-02
  -8.2139908e-03
   7.4156856e-03
   1.9744357e-02
   2.0649403e-02
   1.4842115e-02
   1.3814229e-02
   1.5500514e-02
   8.5305890e-03
  -3.1461929e-03
  -2.8479021e-03
   1.0230051e-02
   1.8970713e-02
   1.6592930e-02
   1.2791207e-02
   1.1028088e-02
   5.3153287e-03
   5.5599968e-05
   6.2241215e-03
   1.7496649e-02
   1.8201774e-02
   1.4561237e-02
   2.7856049e-02
   5.6047118e-02
   7.3541225e-02
   7.0747931e-02
   6.2149877e-02
   5.4018433e-02
   3.8624585e-02
   2.3771699e-02
   3.1432523e-02
   5.9437253e-02
   7.8661905e-02
   7.5949652e-02
   6.6725318e-02
   5.8902963e-02
   4.1073789e-02
   1.6160453e-02
   8.5661300e-03
   2.2481013e-02
   2.8350327e-02
   9.6363094e-03
  -8.4220687e-03
   1.7545345e-03
   2.7073025e-02
   3.0630173e-02
  -6.5130414e-03
  -7.0158378e-02
  -1.1133015e-01
  -4.6010938e-02
   2.0070742e-01
   5.9671579e-01
   9.5069124e-01
   1.0132332e+00
   6.8857871e-01
   1.6217386e-01
  -2.1910834e-01
  -2.4592745e-01
  -3.3389325e-02
   1.2509729e-01
   8.7343620e-02
  -1.7344152e-02
  -1.2691583e-02
   7.9382042e-02
   1.0668405e-01
   3.2139746e-02
  -2.3410636e-02
   1.9465860e-02
   8.7293079e-02
   8.7286479e-02
   4.8588635e-02
   5.5380363e-02
   1.0810229e-01
   1.3690208e-01
   1.1911965e-01
   1.0310689e-01
   1.2325535e-01
   1.6002972e-01
   1.9505645e-01
   2.5028583e-01
   3.4331312e-01
   4.3661652e-01
   4.6925462e-01
   4.3332180e-01
   3.8695590e-01
   3.7929989e-01
   3.8758848e-01
   3.5698025e-01
   2.8794420e-01
   2.3923219e-01
   2.3851758e-01
   2.4140334e-01
   2.0651706e-01
   1.6287170e-01
   1.5676254e-01
   1.7135251e-01
   1.5941358e-01
   1.2999957e-01
   1.3331365e-01
   1.6917757e-01
   1.8184606e-01
   1.5160424e-01
   1.2420427e-01
   1.3184767e-01
   1.4624255e-01
   1.3718090e-01
   1.2445438e-01
   1.3654264e-01
   1.5897122e-01
   1.6126135e-01
   1.4630626e-01
   1.3849784e-01
   1.4275007e-01
   1.4484496e-01
   1.3920821e-01
   1.3299312e-01
   1.3128443e-01
   1.3388533e-01
   1.3906503e-01
   1.4147874e-01
   1.3554736e-01
   1.2580959e-01
   1.2358736e-01
   1.3166333e-01
   1.4275364e-01
   1.5052721e-01
   1.5056744e-01
   1.3844309e-01
   1.2202471e-01
   1.2333233e-01
   1.4727239e-01
   1.6283158e-01
   1.4229635e-01
   1.0543845e-01
   9.2925974e-02
   1.0832409e-01
   1.2273137e-01
   1.2606794e-01
   1.3194752e-01
   1.3791365e-01
   1.2654015e-01
   1.0675151e-01
   1.0871757e-01
   1.3188519e-01
   1.4189344e-01
   1.2836735e-01
   1.2295267e-01
   1.4586372e-01
   1.7440491e-01
   1.8299205e-01
   1.7949147e-01
   1.8129569e-01
   1.8470145e-01
   1.7938388e-01
   1.7064405e-01
   1.6877833e-01
   1.7304250e-01
   1.7792479e-01
   1.7970921e-01
   1.7077394e-01
   1.4564401e-01
   1.1683220e-01
   1.0500316e-01
   1.1035850e-01
   1.1366331e-01
   1.0654111e-01
   9.9347661e-02
   9.9222572e-02
   1.0269715e-01
   1.0784333e-01
   1.0912446e-01
   8.6178917e-02
   3.4249079e-02
   1.1955215e-02
   1.1992517e-01
   3.9955757e-01
   7.5369863e-01
   9.8141396e-01
   9.1510013e-01
   5.6387541e-01
   1.3966489e-01
  -9.7704620e-02
  -6.5848765e-02
   8.2533706e-02
   1.5252089e-01
   1.1914183e-01
   9.6880191e-02
   1.4283773e-01
   1.8906530e-01
   1.7419657e-01
   1.4191156e-01
   1.5983026e-01
   2.0953476e-01
   2.2194527e-01
   1.8566988e-01
   1.5756975e-01
   1.7592428e-01
   2.1341250e-01
   2.2420079e-01
   2.0588128e-01
   1.9810239e-01
   2.3101379e-01
   2.8982777e-01
   3.3558075e-01
   3.5311110e-01
   3.6150229e-01
   3.7570801e-01
   3.8379697e-01
   3.7725503e-01
   3.7623685e-01
   3.9703553e-01
   4.1697365e-01
   4.0585176e-01
   3.7449400e-01
   3.5418455e-01
   3.4336310e-01
   3.1748439e-01
   2.8008566e-01
   2.5608436e-01
   2.3941868e-01
   1.9853869e-01
   1.3798314e-01
   1.0467832e-01
   1.2045447e-01
   1.5173816e-01
   1.6168597e-01
   1.5341774e-01
   1.4444300e-01
   1.3482660e-01
   1.2291854e-01
   1.2360178e-01
   1.4685484e-01
   1.7629169e-01
   1.8694771e-01
   1.7259082e-01
   1.4664605e-01
   1.2809131e-01
   1.2907700e-01
   1.4290566e-01
   1.4623552e-01
   1.2866622e-01
   1.1304859e-01
   1.2610090e-01
   1.5792143e-01
   1.7580477e-01
   1.6941004e-01
   1.5385936e-01
   1.3715003e-01
   1.1765581e-01
   1.0727792e-01
   1.2016974e-01
   1.4030901e-01
   1.3679586e-01
   1.1200803e-01
   9.8547503e-02
   1.0673977e-01
   1.1283427e-01
   1.0460794e-01
   1.0074751e-01
   1.1384607e-01
   1.2749153e-01
   1.2434866e-01
   1.1124967e-01
   1.0494628e-01
   1.1424399e-01
   1.4159334e-01
   1.7941402e-01
   2.0187229e-01
   1.8597791e-01
   1.4612840e-01
   1.2416641e-01
   1.4020175e-01
   1.7345239e-01
   1.9286177e-01
   1.8611417e-01
   1.5969068e-01
   1.3190219e-01
   1.2322328e-01
   1.3273176e-01
   1.3117976e-01
   1.0029310e-01
   6.6807305e-02
   6.7399757e-02
   9.1904302e-02
   9.8899736e-02
   8.0557570e-02
   6.9643844e-02
   7.9965504e-02
   8.0411295e-02
   4.1742783e-02
  -1.2863139e-02
  -7.0162034e-03
   1.4831445e-01
   4.7870945e-01
   8.6235564e-01
   1.0515709e+00
   8.6850192e-01
   4.0910632e-01
  -8.1861372e-03
  -1.3915202e-01
  -2.6535748e-02
   1.0655288e-01
   1.2378241e-01
   7.9432595e-02
   8.2527413e-02
   1.3800212e-01
   1.6138625e-01
   1.1386439e-01
   6.0637330e-02
   7.6703855e-02
   1.3832322e-01
   1.5897318e-01
   1.1854910e-01
   9.0955281e-02
   1.2682479e-01
   1.7596664e-01
   1.7256905e-01
   1.4255199e-01
   1.5862511e-01
   2.2328061e-01
   2.7331004e-01
   2.8604545e-01
   3.0235909e-01
   3.4013647e-01
   3.6046239e-01
   3.4150899e-01
   3.2189160e-01
   3.3761760e-01
   3.6528300e-01
   3.6396432e-01
   3.3679604e-01
   3.1522132e-01
   3.0740923e-01
   2.9486384e-01
   2.6478214e-01
   2.2002330e-01
   1.6697680e-01
   1.1340210e-01
   7.2970803e-02
   5.8316542e-02
   6.9509047e-02
   9.1701365e-02
   1.0292896e-01
   9.1331833e-02
   7.1286694e-02
   7.0804726e-02
   9.2770146e-02
   1.0571295e-01
   8.8705084e-02
   6.4090459e-02
   6.2045944e-02
   7.4775333e-02
   7.7379442e-02
   7.4141743e-02
   8.5453928e-02
   1.0339182e-01
   1.0266912e-01
   8.7287806e-02
   8.3870298e-02
   9.3328686e-02
   9.1567403e-02
   7.6354536e-02
   7.0567344e-02
   7.7109069e-02
   7.3379172e-02
   5.6263651e-02
   5.1103602e-02
   6.6171179e-02
   7.6846625e-02
   6.7830831e-02
   5.6240209e-02
   5.8269178e-02
   6.3958305e-02
   6.0933446e-02
   5.6716699e-02
   6.1082034e-02
   6.6848248e-02
   6.2756782e-02
   5.0929461e-02
   4.2147244e-02
   4.4428735e-02
   5.8526857e-02
   7.4293663e-02
   7.5669288e-02
   6.1764761e-02
   5.3684868e-02
   6.4766967e-02
   7.7805952e-02
   7.2329927e-02
   5.8024155e-02
   5.4809778e-02
   5.6988352e-02
   5.0231958e-02
   4.8707903e-02
   7.5587210e-02
   1.1617078e-01
   1.3229491e-01
   1.1977386e-01
   1.1057213e-01
   1.1854831e-01
   1.2444285e-01
   1.1872154e-01
   1.1821023e-01
   1.2908095e-01
   1.2888523e-01
   1.0069804e-01
   5.9330922e-02
   3.1399945e-02
   2.8409365e-02
   4.4659626e-02
   6.3194223e-02
   6.3207936e-02
   4.0868528e-02
   2.0241405e-02
   2.3563212e-02
   3.6491885e-02
   2.5061820e-02
  -1.8206706e-02
  -6.1416003e-02
  -4.9187805e-02
   8.5803239e-02
   3.8279817e-01
   7.6363801e-01
   1.0079766e+00
   9.0993937e-01
   4.9718519e-01
   4.4128740e-02
  -1.7393624e-01
  -1.1953654e-01
   2.8613495e-02
   9.5203367e-02
   6.4211085e-02
   3.2432372e-02
   6.1811709e-02
   1.1332431e-01
   1.2007352e-01
   8.5492434e-02
   7.1405462e-02
   1.0026247e-01
   1.2298406e-01
   1.0258940e-01
   7.7691119e-02
   1.0015421e-01
   1.4914535e-01
   1.6409462e-01
   1.4040270e-01
   1.3156566e-01
   1.6445611e-01
   2.1076859e-01
   2.4411915e-01
   2.7070085e-01
   2.9369147e-01
   2.9745330e-01
   2.8407881e-01
   2.8419688e-01
   3.1196605e-01
   3.4206440e-01
   3.4814580e-01
   3.3526097e-01
   3.1858924e-01
   2.9622089e-01
   2.6051213e-01
   2.1750974e-01
   1.8025088e-01
   1.5441391e-01
   1.3741857e-01
   1.2155644e-01
   9.8052875e-02
   6.9524019e-02
   5.3406464e-02
   5.9294882e-02
   7.1456288e-02
   6.9983084e-02
   5.7898701e-02
   4.8904178e-02
   4.3153829e-02
   3.7820668e-02
   4.4843171e-02
   7.0141714e-02
   9.0980264e-02
   8.5346220e-02
   6.9079466e-02
   6.9962571e-02
   8.0132570e-02
   7.3326461e-02
   5.6341219e-02
   5.8375762e-02
   7.5936804e-02
   7.6035654e-02
   5.5257593e-02
   4.8800279e-02
   7.1862311e-02
   9.4287321e-02
   8.8037280e-02
   6.4972955e-02
   5.1211446e-02
   5.1766855e-02
   5.6098844e-02
   5.7354253e-02
   5.3659289e-02
   4.6316192e-02
   4.3653688e-02
   5.3001737e-02
   6.7325484e-02
   7.3038102e-02
   6.7955692e-02
   5.8316914e-02
   4.6729662e-02
   3.8640580e-02
   4.7030437e-02
   7.0094331e-02
   8.0035804e-02
   5.9374693e-02
   3.2067674e-02
   2.9097385e-02
   4.0249442e-02
   3.5831750e-02
   2.1446281e-02
   2.8487515e-02
   5.7101367e-02
   7.2598332e-02
   6.0087540e-02
   4.2991351e-02
   4.1756267e-02
   4.9038857e-02
   5.2903830e-02
   5.4734111e-02
   5.7375526e-02
   6.0611795e-02
   7.1690789e-02
   9.6620880e-02
   1.2083953e-01
   1.2252815e-01
   1.0407537e-01
   8.7233617e-02
   8.1461351e-02
   8.1335653e-02
   8.7560380e-02
   1.0159900e-01
   1.0586701e-01
   8.1208269e-02
   4.1267855e-02
   1.8731399e-02
   1.9747284e-02
   2.2835919e-02
   2.0477301e-02
   2.7789316e-02
   4.7461689e-02
   5.8455127e-02
   4.6251323e-02
   1.7658848e-02
  -1.8354665e-02
  -5.4340663e-02
  -5.6375618e-02
   4.1799309e-02
   2.8564155e-01
   6.2564432e-01
   8.9739326e-01
   9.0819545e-01
   6.0081153e-01
   1.4967391e-01
  -1.5650867e-01
  -1.7408590e-01
  -2.3161682e-02
   8.1562977e-02
   7.1923074e-02
   4.1237681e-02
   6.3230405e-02
   9.6386831e-02
   7.8763250e-02
   3.0215068e-02
   1.3388024e-02
   4.2396054e-02
   7.7984071e-02
   8.9942934e-02
   8.6494060e-02
   8.9538568e-02
   1.0555338e-01
   1.2251369e-01
   1.2715458e-01
   1.2421941e-01
   1.3458459e-01
   1.6908471e-01
   2.1360624e-01
   2.4937824e-01
   2.7443075e-01
   2.9231297e-01
   2.9782315e-01
   2.9311134e-01
   2.9875028e-01
   3.2416570e-01
   3.4429345e-01
   3.3233266e-01
   2.9858848e-01
   2.6823374e-01
   2.4000884e-01
   2.0127577e-01
   1.6535025e-01
   1.5260758e-01
   1.4719199e-01
   1.1632585e-01
   6.6139465e-02
   3.5005098e-02
   3.3691069e-02
   3.5009881e-02
   2.4906951e-02
   2.1355291e-02
   3.3917215e-02
   4.2756015e-02
   3.2306342e-02
   1.6674410e-02
   1.6898704e-02
   3.3133202e-02
   4.9418745e-02
   5.1677953e-02
   3.7823549e-02
   2.2279837e-02
   2.6640137e-02
   5.2706616e-02
   7.4401121e-02
   7.1993129e-02
   5.9470716e-02
   5.7783560e-02
   5.9761509e-02
   4.9392905e-02
   3.7697434e-02
   4.4512075e-02
   5.7817094e-02
   4.9268344e-02
   2.2862463e-02
   1.0511360e-02
   2.2131856e-02
   3.5424279e-02
   3.4735668e-02
   2.7328335e-02
   2.0532520e-02
   1.3144149e-02
   1.0370274e-02
   1.9313102e-02
   2.9577922e-02
   2.4606540e-02
   1.0613726e-02
   8.3858268e-03
   1.9237487e-02
   2.5548055e-02
   2.2339234e-02
   2.1943946e-02
   2.9240491e-02
   3.7125527e-02
   4.4147940e-02
   5.3822782e-02
   6.0965879e-02
   6.0182145e-02
   6.0233489e-02
   6.8179033e-02
   7.0977791e-02
   5.7952527e-02
   4.7994083e-02
   6.4266053e-02
   9.3237560e-02
   1.0135874e-01
   8.3278398e-02
   6.0573066e-02
   4.1298913e-02
   1.6498739e-02
  -8.3374527e-03
  -1.5043057e-02
  -6.0165490e-03
  -2.9964375e-03
  -1.1331388e-02
  -1.4891947e-02
  -7.9232197e-03
  -5.3195325e-03
  -1.9398472e-02
  -4.5179883e-02
  -5.8819372e-02
  -7.4053473e-03
   1.7602588e-01
   4.9264844e-01
   8.0675343e-01
   9.0820328e-01
   6.9060303e-01
   2.6730868e-01
  -1.0526162e-01
  -2.3170880e-01
  -1.2403690e-01
   3.8481471e-02
   9.5393780e-02
   5.0073919e-02
   1.9265907e-02
   5.9252950e-02
   1.0071005e-01
   7.1563159e-02
   1.2991759e-02
   1.2196599e-02
   6.6318027e-02
   9.3835120e-02
   6.5293798e-02
   4.1369997e-02
   7.0963274e-02
   1.2166507e-01
   1.3978144e-01
   1.2809075e-01
   1.2860078e-01
   1.5961617e-01
   2.0261855e-01
   2.3529137e-01
   2.5282251e-01
   2.6265622e-01
   2.7224323e-01
   2.8161069e-01
   2.8635655e-01
   2.8898709e-01
   2.9852922e-01
   3.1256234e-01
   3.1290970e-01
   2.8941499e-01
   2.5277896e-01
   2.1294494e-01
   1.6587344e-01
   1.1665684e-01
   8.8919345e-02
   8.8049166e-02
   8.2328997e-02
   5.0248937e-02
   1.9815497e-02
   2.4471394e-02
   4.4555876e-02
   3.6612289e-02
   3.2673096e-03
  -1.3756916e-02
  -6.1361967e-04
   1.6146397e-02
   2.0897332e-02
   2.7095416e-02
   4.0803442e-02
   4.7317253e-02
   4.2202128e-02
   4.1153508e-02
   5.0211023e-02
   5.5191465e-02
   4.8370507e-02
   4.0593585e-02
   4.0575790e-02
   4.3464807e-02
   4.3797390e-02
   4.1839741e-02
   3.7076240e-02
   3.1552916e-02
   3.4767459e-02
   4.8163395e-02
   5.3506758e-02
   3.6711633e-02
   1.3881610e-02
   1.1955616e-02
   3.1992170e-02
   5.1988283e-02
   5.5827892e-02
   4.0341782e-02
   8.9839151e-03
  -1.8996335e-02
  -1.1366191e-02
   3.6668346e-02
   8.0790478e-02
   7.6741305e-02
   3.7162383e-02
   9.3914363e-03
   1.2367638e-02
   2.9848303e-02
   5.1224726e-02
   7.8172399e-02
   9.8399490e-02
   9.3937938e-02
   7.5562398e-02
   7.3705495e-02
   9.4049381e-02
   1.1305169e-01
   1.1707014e-01
   1.1499558e-01
   1.1061820e-01
   9.2563846e-02
   5.7702823e-02
   2.1708428e-02
   1.2804529e-03
   9.3718339e-04
   1.5031506e-02
   2.8916012e-02
   2.6366211e-02
   1.0936863e-02
   7.1579585e-03
   2.2926326e-02
   2.7163747e-02
  -1.0931136e-02
  -6.9368121e-02
  -7.5260687e-02
   5.1598836e-02
   3.4978113e-01
   7.5405277e-01
   1.0566805e+00
   1.0105544e+00
   5.6916166e-01
   6.8586091e-03
  -2.9593860e-01
  -2.1487693e-01
   2.6691916e-02
   1.3956553e-01
   7.0089985e-02
  -1.9296421e-02
  -1.4160061e-03
   7.4918075e-02
   9.3920992e-02
   4.1447271e-02
   6.9965730e-03
   4.2767814e-02
   9.0484121e-02
   7.6237836e-02
   2.7088255e-02
   3.1395634e-02
   1.0228065e-01
   1.5586212e-01
   1.3821427e-01
   1.0110016e-01
   1.1423866e-01
   1.6576869e-01
   2.0413318e-01
   2.2740421e-01
   2.6372064e-01
   2.9852127e-01
   2.9580765e-01
   2.7384501e-01
   2.8550311e-01
   3.2657135e-01
   3.3443707e-01
   2.8717332e-01
   2.3870499e-01
   2.3432383e-01
   2.4652464e-01
   2.2530358e-01
   1.7052896e-01
   1.1937071e-01
   8.8460653e-02
   6.2894971e-02
   3.1550244e-02
   5.8336183e-03
   1.1427816e-03
   1.3296066e-02
   2.0562457e-02
   9.3239500e-03
  -7.8752672e-03
  -9.5151126e-03
   2.8867731e-03
   7.9443402e-03
   2.4401600e-04
  -2.5535932e-03
   4.8472641e-03
   4.1327398e-03
  -8.0483520e-03
  -5.0330703e-03
   2.2762622e-02
   4.0178620e-02
   1.8928949e-02
  -1.3891884e-02
  -1.6673595e-02
   4.1312397e-03
   1.4223557e-02
   1.1013643e-02
   1.5830165e-02
   2.3254545e-02
   8.7371413e-03
  -2.0350540e-02
  -2.9740009e-02
  -1.4350452e-02
  -5.4465182e-03
  -1.7514192e-02
  -2.7927179e-02
  -1.8218218e-02
  -1.5714158e-03
   2.2980036e-03
  -6.4418142e-03
  -1.6614479e-02
  -2.1661303e-02
  -1.9182814e-02
  -8.7376881e-03
   6.7669705e-03
   2.5326273e-02
   4.5875532e-02
   5.7517039e-02
   4.4924590e-02
   1.7266335e-02
   1.0928258e-02
   4.3243939e-02
   8.3617500e-02
   9.3847260e-02
   7.6339008e-02
   5.5863104e-02
   3.5676865e-02
   5.6175068e-03
  -2.3533540e-02
  -3.1187484e-02
  -2.2730634e-02
  -2.0726820e-02
  -2.8395938e-02
  -3.2358920e-02
  -3.2488921e-02
  -3.8173311e-02
  -4.4514902e-02
  -4.4799620e-02
  -5.6801776e-02
  -9.6183675e-02
  -1.1990643e-01
  -3.2801494e-02
   2.2421459e-01
   5.8917544e-01
   8.8031877e-01
   9.0002207e-01
   5.9059756e-01
   1.1994654e-01
  -2.2334776e-01
  -2.7181446e-01
  -1.1363592e-01
   3.4637889e-02
   5.9923088e-02
   1.7815698e-02
   1.6638921e-03
   2.4188170e-02
   4.1399698e-02
   3.2604237e-02
   1.7310415e-02
   1.6499624e-02
   2.7941877e-02
   3.7432174e-02
   4.0985835e-02
   5.0812731e-02
   7.6361576e-02
   1.0405146e-01
   1.1206826e-01
   1.0648874e-01
   1.1835832e-01
   1.5702311e-01
   1.9628472e-01
   2.2109700e-01
   2.5212083e-01
   2.9910109e-01
   3.2707552e-01
   3.0710967e-01
   2.7108268e-01
   2.7117891e-01
   3.0475328e-01
   3.2474354e-01
   3.1062613e-01
   2.8256484e-01
   2.5285287e-01
   2.1021512e-01
   1.5461858e-01
   1.0768735e-01
   8.0582024e-02
   6.1018171e-02
   3.7953813e-02
   1.5775700e-02
   1.5910324e-03
  -2.2363679e-03
   5.2483308e-03
   1.7459076e-02
   1.8044167e-02
   2.4354207e-03
  -9.3448991e-03
  -8.2546716e-04
   1.3630419e-02
   1.1807645e-02
  -1.0325003e-03
  -5.1944719e-03
  -6.4307118e-04
  -1.9454215e-05
   2.2430694e-04
   1.2147271e-02
   2.8562302e-02
   3.1463508e-02
   2.2106432e-02
   1.7383398e-02
   2.2096532e-02
   2.7376557e-02
   2.9712848e-02
   3.0990777e-02
   2.7887770e-02
   1.9439551e-02
   1.4072321e-02
   1.2934868e-02
   2.6877776e-03
  -1.7753316e-02
  -2.5206867e-02
  -9.2128861e-03
   3.2253470e-03
  -1.1999773e-02
  -3.4454043e-02
  -3.0935200e-02
  -8.1452087e-03
   3.5773405e-03
   2.5097416e-03
   1.1730041e-02
   3.4084627e-02
   5.0141782e-02
   5.5200712e-02
   6.2060136e-02
   7.0320395e-02
   6.6653774e-02
   5.4495591e-02
   5.2310441e-02
   6.0805318e-02
   5.8660168e-02
   3.3317647e-02
  -4.6868946e-03
  -3.7556049e-02
  -5.3289259e-02
  -4.7598977e-02
  -2.9236586e-02
  -1.7306338e-02
  -1.9720209e-02
  -2.4106434e-02
  -2.1519466e-02
  -2.3685327e-02
  -4.3943297e-02
  -7.7683179e-02
  -1.0683358e-01
  -9.2042197e-02
   4.3922856e-02
   3.5842684e-01
   7.6226033e-01
   1.0030250e+00
   8.6886672e-01
   4.2059467e-01
  -3.8057633e-02
  -2.4182744e-01
  -1.8208766e-01
  -4.3895172e-02
   1.7577595e-02
   4.6194730e-04
  -1.2072045e-02
   1.5966312e-02
   3.9291027e-02
   1.4323740e-02
  -2.7624563e-02
  -2.2593651e-02
   3.0595963e-02
   6.7305209e-02
   5.3161443e-02
   2.9455116e-02
   4.0284886e-02
   6.6291951e-02
   7.0540916e-02
   6.7748221e-02
   9.6398240e-02
   1.4999800e-01
   1.8928228e-01
   2.0640514e-01
   2.2655090e-01
   2.5491450e-01
   2.7004494e-01
   2.6721740e-01
   2.6529713e-01
   2.6920333e-01
   2.6386833e-01
   2.4853023e-01
   2.4201422e-01
   2.4774490e-01
   2.4277616e-01
   2.0973748e-01
   1.5845316e-01
   1.1084539e-01
   8.0360747e-02
   6.6569084e-02
   5.6308189e-02
   3.3510506e-02
  -3.3886207e-04
  -2.3087473e-02
  -1.9920661e-02
  -2.3029529e-03
   1.1934798e-02
   2.0241870e-02
   2.3781547e-02
   1.5426140e-02
  -2.6159768e-03
  -1.0391966e-02
   1.7491563e-04
   8.3821313e-03
  -1.3981839e-03
  -1.2103604e-02
  -4.2048270e-03
   1.0436926e-02
   1.2392267e-02
   8.8913606e-03
   1.3712669e-02
   1.5196368e-02
  -1.7094905e-03
  -2.0905624e-02
  -1.8397360e-02
  -3.7765947e-03
  -2.2459977e-03
  -9.5310039e-03
  -2.6538233e-03
   1.4743625e-02
   1.6472191e-02
  -1.3994064e-03
  -1.5036974e-02
  -1.1130107e-02
  -4.6283450e-04
   6.2575940e-03
   9.3905718e-03
   7.5726647e-03
  -2.5771515e-03
  -1.4069512e-02
  -1.5675564e-02
  -8.3850138e-03
  -1.1921843e-03
   3.0983974e-03
   4.8049043e-03
   4.8378780e-04
  -8.1963380e-03
  -1.2025043e-02
  -1.2095881e-02
  -2.1632534e-02
  -3.7815510e-02
  -3.6365111e-02
  -1.0833999e-02
   1.0648899e-02
   9.9306744e-03
   1.0397332e-02
   3.5174681e-02
   6.2813713e-02
   6.0972839e-02
   4.0677875e-02
   3.6436456e-02
   4.9127280e-02
   4.9948193e-02
   3.0963285e-02
   1.2647667e-02
   5.8415360e-03
   7.2007272e-04
  -8.4888982e-03
  -1.7129514e-02
  -2.5761356e-02
  -3.6424183e-02
  -3.7854716e-02
  -1.9348578e-02
   5.1558332e-03
   1.0233698e-02
  -8.3002521e-03
  -3.5019447e-02
  -6.2350980e-02
  -9.0460994e-02
  -9.6217268e-02
  -2.0907333e-02
   1.9280575e-01
   5.2994133e-01
   8.5143446e-01
   9.4267831e-01
   6.8573744e-01
   2.1163660e-01
  -1.7288971e-01
  -2.6075345e-01
  -1.2328244e-01
   1.4590632e-02
   3.1798580e-02
  -1.1999341e-02
  -1.9078744e-02
   1.6073055e-02
   3.5876703e-02
   1.5489297e-02
  -1.2592108e-02
  -9.3023552e-03
   2.4147788e-02
   5.1131164e-02
   4.4001429e-02
   1.8454145e-02
   1.4145356e-02
   4.2822919e-02
   7.6791841e-02
   9.4527994e-02
   1.0998816e-01
   1.4120814e-01
   1.7763553e-01
   2.0091945e-01
   2.1410690e-01
   2.2703359e-01
   2.3583773e-01
   2.4056478e-01
   2.5802887e-01
   2.9003145e-01
   3.0371749e-01
   2.7500398e-01
   2.2925004e-01
   2.0483902e-01
   1.9647269e-01
   1.7125387e-01
   1.2489167e-01
   8.3406572e-02
   5.8905617e-02
   4.0100453e-02
   2.1652024e-02
   1.0567469e-02
   5.4997092e-03
  -3.6620822e-03
  -1.7525137e-02
  -2.9005589e-02
  -3.7251760e-02
  -4.1761190e-02
  -3.3585503e-02
  -1.1913020e-02
   3.2633799e-03
  -4.1385308e-03
  -2.1487913e-02
  -2.7327379e-02
  -2.1768396e-02
  -1.6588300e-02
  -1.1123921e-02
  -9.9480302e-04
   4.1957738e-03
  -4.2735160e-03
  -1.4859375e-02
  -1.3440137e-02
  -7.0833545e-03
  -9.2141831e-03
  -1.5524364e-02
  -1.5557798e-02
  -1.3522262e-02
  -1.7426933e-02
  -2.2929938e-02
  -2.6452346e-02
  -3.5930879e-02
  -4.9870463e-02
  -4.7915520e-02
  -2.4237110e-02
  -6.8349361e-03
  -1.8256343e-02
  -4.0155941e-02
  -4.4644472e-02
  -3.7716172e-02
  -3.9919881e-02
  -4.5118557e-02
  -3.3635418e-02
  -1.0356943e-02
   5.1121344e-03
   1.4038751e-02
   3.0980123e-02
   5.0561015e-02
   5.3803729e-02
   4.0794940e-02
   2.8348464e-02
   2.1421766e-02
   1.2894397e-02
   4.8410475e-03
   5.0153771e-03
   7.6538276e-03
  -2.9519252e-04
  -1.9084848e-02
  -3.9350754e-02
  -5.6055189e-02
  -6.3897285e-02
  -5.3053862e-02
  -2.7514025e-02
  -1.2536880e-02
  -2.4834337e-02
  -5.1477469e-02
  -7.7569297e-02
  -1.1250511e-01
  -1.5601007e-01
  -1.4906152e-01
   5.1522332e-04
   3.1877428e-01
   6.8929050e-01
   8.8945156e-01
   7.4686598e-01
   3.1107734e-01
  -1.3836915e-01
  -3.1964808e-01
  -2.1053838e-01
  -4.0048455e-02
  -6.3409580e-03
  -7.2630929e-02
  -8.3792094e-02
  -4.2338725e-03
   5.7619166e-02
   2.8992328e-02
  -3.1402003e-02
  -3.6464635e-02
   1.0518226e-02
   4.3382121e-02
   3.2848727e-02
   1.1727042e-02
   1.7192006e-02
   4.5167106e-02
   6.6838720e-02
   7.1365586e-02
   7.7938058e-02
   1.0602958e-01
   1.4762813e-01
   1.8197758e-01
   2.0723511e-01
   2.3437027e-01
   2.5640876e-01
   2.5639848e-01
   2.4635624e-01
   2.5862050e-01
   2.8868919e-01
   2.8933774e-01
   2.4122861e-01
   1.8732866e-01
   1.6874122e-01
   1.6573635e-01
   1.3855512e-01
   9.2303650e-02
   5.8771661e-02
   4.0033875e-02
   1.5219532e-02
  -1.3766030e-02
  -2.6181171e-02
  -2.1757586e-02
  -1.8516806e-02
  -1.9088111e-02
  -1.2615395e-02
  -3.1180567e-03
  -4.6166078e-03
  -1.3434338e-02
  -1.3678282e-02
  -5.7203548e-03
  -3.9754459e-03
  -1.0511844e-02
  -1.2739879e-02
  -3.2352221e-03
   1.4955867e-02
   3.5071398e-02
   4.4796729e-02
   3.0916837e-02
   1.3911092e-03
  -1.2878517e-02
   4.0654470e-03
   2.9298703e-02
   3.2537113e-02
   1.4718791e-02
  -3.0250206e-03
  -1.0858744e-02
  -1.0747847e-02
  -2.3974014e-03
   1.1193737e-02
   1.8718245e-02
   1.7137729e-02
   1.6764680e-02
   1.7775359e-02
   5.3297779e-03
  -1.7676443e-02
  -2.2350915e-02
   1.3127354e-03
   2.1413675e-02
   1.1293270e-02
  -9.5284811e-03
  -1.0462393e-02
   2.6354871e-03
   9.0363281e-03
   1.6284559e-02
   4.2248617e-02
   7.3006267e-02
   7.9437273e-02
   6.4653008e-02
   5.7207139e-02
   6.3972748e-02
   6.4593484e-02
   5.0370985e-02
   3.7768252e-02
   4.0645161e-02
   5.1790989e-02
   5.4970303e-02
   4.1442896e-02
   1.6192912e-02
  -3.7926601e-03
  -4.8518663e-03
   4.5325385e-03
   3.9631699e-03
  -6.5114107e-03
  -6.3262370e-03
   7.0723825e-03
   7.0853952e-03
  -2.3627973e-02
  -6.9975397e-02
  -1.0399201e-01
  -8.7396434e-02
   4.9719419e-02
   3.5924355e-01
   7.5132596e-01
   9.7840402e-01
   8.3752444e-01
   3.9660795e-01
  -4.0965036e-02
  -2.1784695e-01
  -1.3793884e-01
   1.3924086e-03
   4.3580370e-02
   4.8072757e-03
  -6.9831602e-03
   4.6962706e-02
   9.4798772e-02
   6.7932239e-02
   4.5889581e-03
  -4.9397601e-03
   4.9666070e-02
   8.7921017e-02
   6.3550170e-02
   3.0091077e-02
   5.0692060e-02
   1.0342535e-01
   1.2712963e-01
   1.1830852e-01
   1.2333972e-01
   1.5846197e-01
   1.9460150e-01
   2.1292938e-01
   2.2689600e-01
